value_sequence,finalLabel,original_index,original_len,generated_window_id,new_len
0.50131200 0.50085400 0.50146400 0.50054900 0.50054900 0.50039600 0.50039600 0.50115900 0.50039600 0.50100700 0.49993800 0.50085400 0.50024400 0.50100700 0.50085400 0.50115900 0.50100700 0.50054900 0.50054900 0.50085400,0,0,20,0,20
0.51050400 0.51203000 0.51889600 0.54010600 0.56970800 0.57916800 0.56665600 0.52225300 0.46854200 0.44550100 0.44412800 0.46945800 0.49326100 0.50470600 0.50882500 0.50758099 0.51612354 0.51284203 0.50056529 0.51850534,1,1,15,0,20
0.51583651 0.51634548 0.50291002 0.50949087 0.51050400 0.51203000 0.51889600 0.54010600 0.56970800 0.57916800 0.56665600 0.52225300 0.46854200 0.44550100 0.44412800 0.46945800 0.49326100 0.50470600 0.50882500 0.50619535,1,1,15,1,20
0.51344175 0.51050400 0.51203000 0.51889600 0.54010600 0.56970800 0.57916800 0.56665600 0.52225300 0.46854200 0.44550100 0.44412800 0.46945800 0.49326100 0.50470600 0.50882500 0.51539417 0.50767331 0.50327349 0.50993596,1,1,15,2,20
0.50159708 0.51719428 0.51319261 0.51577419 0.50753340 0.51050400 0.51203000 0.51889600 0.54010600 0.56970800 0.57916800 0.56665600 0.52225300 0.46854200 0.44550100 0.44412800 0.46945800 0.49326100 0.50470600 0.50882500,1,1,15,3,20
0.51050400 0.51203000 0.51889600 0.54010600 0.56970800 0.57916800 0.56665600 0.52225300 0.46854200 0.44550100 0.44412800 0.46945800 0.49326100 0.50470600 0.50882500 0.51682619 0.51449094 0.50260998 0.50814767 0.49954004,1,1,15,4,20
0.50344454 0.51424189 0.51550208 0.52005062 0.50694733 0.51050400 0.51203000 0.51889600 0.54010600 0.56970800 0.57916800 0.56665600 0.52225300 0.46854200 0.44550100 0.44412800 0.46945800 0.49326100 0.50470600 0.50882500,1,1,15,5,20
0.50988232 0.50416296 0.50294694 0.51000789 0.50492745 0.51050400 0.51203000 0.51889600 0.54010600 0.56970800 0.57916800 0.56665600 0.52225300 0.46854200 0.44550100 0.44412800 0.46945800 0.49326100 0.50470600 0.50882500,1,1,15,6,20
0.51397163 0.50922063 0.51050400 0.51203000 0.51889600 0.54010600 0.56970800 0.57916800 0.56665600 0.52225300 0.46854200 0.44550100 0.44412800 0.46945800 0.49326100 0.50470600 0.50882500 0.51559600 0.51290100 0.50500610,1,1,15,7,20
0.51672734 0.50820629 0.50618163 0.51423059 0.51050400 0.51203000 0.51889600 0.54010600 0.56970800 0.57916800 0.56665600 0.52225300 0.46854200 0.44550100 0.44412800 0.46945800 0.49326100 0.50470600 0.50882500 0.50149288,1,1,15,8,20
0.50437608 0.50044426 0.51636304 0.51387028 0.51050400 0.51203000 0.51889600 0.54010600 0.56970800 0.57916800 0.56665600 0.52225300 0.46854200 0.44550100 0.44412800 0.46945800 0.49326100 0.50470600 0.50882500 0.51300073,1,1,15,9,20
0.50104300 0.52881400 0.54361500 0.56909800 0.58588200 0.59198600 0.58649300 0.56375700 0.53415500 0.49310900 0.45496200 0.43405700 0.42627500 0.42932700 0.44153400 0.46762700 0.49036200 0.50180600 0.50760500 0.50677082,1,2,19,0,20
0.50242069 0.50104300 0.52881400 0.54361500 0.56909800 0.58588200 0.59198600 0.58649300 0.56375700 0.53415500 0.49310900 0.45496200 0.43405700 0.42627500 0.42932700 0.44153400 0.46762700 0.49036200 0.50180600 0.50760500,1,2,19,1,20
0.50104300 0.52881400 0.54361500 0.56909800 0.58588200 0.59198600 0.58649300 0.56375700 0.53415500 0.49310900 0.45496200 0.43405700 0.42627500 0.42932700 0.44153400 0.46762700 0.49036200 0.50180600 0.50760500 0.49977834,1,2,19,2,20
0.50104300 0.52881400 0.54361500 0.56909800 0.58588200 0.59198600 0.58649300 0.56375700 0.53415500 0.49310900 0.45496200 0.43405700 0.42627500 0.42932700 0.44153400 0.46762700 0.49036200 0.50180600 0.50760500 0.51102429,1,2,19,3,20
0.50235044 0.50104300 0.52881400 0.54361500 0.56909800 0.58588200 0.59198600 0.58649300 0.56375700 0.53415500 0.49310900 0.45496200 0.43405700 0.42627500 0.42932700 0.44153400 0.46762700 0.49036200 0.50180600 0.50760500,1,2,19,4,20
0.50104300 0.52881400 0.54361500 0.56909800 0.58588200 0.59198600 0.58649300 0.56375700 0.53415500 0.49310900 0.45496200 0.43405700 0.42627500 0.42932700 0.44153400 0.46762700 0.49036200 0.50180600 0.50760500 0.51298559,1,2,19,5,20
0.50211682 0.50104300 0.52881400 0.54361500 0.56909800 0.58588200 0.59198600 0.58649300 0.56375700 0.53415500 0.49310900 0.45496200 0.43405700 0.42627500 0.42932700 0.44153400 0.46762700 0.49036200 0.50180600 0.50760500,1,2,19,6,20
0.50222961 0.50104300 0.52881400 0.54361500 0.56909800 0.58588200 0.59198600 0.58649300 0.56375700 0.53415500 0.49310900 0.45496200 0.43405700 0.42627500 0.42932700 0.44153400 0.46762700 0.49036200 0.50180600 0.50760500,1,2,19,7,20
0.49163978 0.50104300 0.52881400 0.54361500 0.56909800 0.58588200 0.59198600 0.58649300 0.56375700 0.53415500 0.49310900 0.45496200 0.43405700 0.42627500 0.42932700 0.44153400 0.46762700 0.49036200 0.50180600 0.50760500,1,2,19,8,20
0.50104300 0.52881400 0.54361500 0.56909800 0.58588200 0.59198600 0.58649300 0.56375700 0.53415500 0.49310900 0.45496200 0.43405700 0.42627500 0.42932700 0.44153400 0.46762700 0.49036200 0.50180600 0.50760500 0.50632010,1,2,19,9,20
0.49926700 0.50292900 0.51727200 0.53939700 0.58700500 0.63720600 0.65917900 0.66101000 0.65170200 0.59371800 0.51483100 0.42449800 0.35186700 0.32348500 0.31188900 0.32699500 0.37643300 0.42571900 0.45898300 0.48309200,1,5,21,0,20
0.50292900 0.51727200 0.53939700 0.58700500 0.63720600 0.65917900 0.66101000 0.65170200 0.59371800 0.51483100 0.42449800 0.35186700 0.32348500 0.31188900 0.32699500 0.37643300 0.42571900 0.45898300 0.48309200 0.49087400,1,5,21,1,20
0.49987232 0.50880021 0.49636861 0.49284388 0.49732074 0.49756577 0.50495739 0.50285254 0.50170800 0.50903200 0.53039400 0.55358800 0.56243800 0.54397500 0.49224800 0.44769200 0.43273800 0.44433500 0.47134300 0.48980600,1,8,12,0,20
0.50740536 0.50170800 0.50903200 0.53039400 0.55358800 0.56243800 0.54397500 0.49224800 0.44769200 0.43273800 0.44433500 0.47134300 0.48980600 0.49302527 0.48797191 0.49595836 0.48328125 0.48045486 0.48177412 0.49416252,1,8,12,1,20
0.49491029 0.50172897 0.49473049 0.50564782 0.50062745 0.49932030 0.50170800 0.50903200 0.53039400 0.55358800 0.56243800 0.54397500 0.49224800 0.44769200 0.43273800 0.44433500 0.47134300 0.48980600 0.48591718 0.49235853,1,8,12,2,20
0.49893481 0.49343283 0.49404202 0.51097751 0.50170800 0.50903200 0.53039400 0.55358800 0.56243800 0.54397500 0.49224800 0.44769200 0.43273800 0.44433500 0.47134300 0.48980600 0.49781101 0.49371871 0.48521887 0.49899822,1,8,12,3,20
0.50606062 0.50069177 0.50170800 0.50903200 0.53039400 0.55358800 0.56243800 0.54397500 0.49224800 0.44769200 0.43273800 0.44433500 0.47134300 0.48980600 0.48534370 0.48189839 0.49769388 0.48893956 0.48397463 0.48600426,1,8,12,4,20
0.50329780 0.49522137 0.50886465 0.50689605 0.50611225 0.50034522 0.50426287 0.50170800 0.50903200 0.53039400 0.55358800 0.56243800 0.54397500 0.49224800 0.44769200 0.43273800 0.44433500 0.47134300 0.48980600 0.49145367,1,8,12,5,20
0.50170800 0.50903200 0.53039400 0.55358800 0.56243800 0.54397500 0.49224800 0.44769200 0.43273800 0.44433500 0.47134300 0.48980600 0.48166433 0.48815648 0.48082519 0.48968827 0.48647260 0.48284143 0.48203578 0.49152315,1,8,12,6,20
0.49509735 0.51023945 0.50333476 0.49863493 0.50353252 0.50170800 0.50903200 0.53039400 0.55358800 0.56243800 0.54397500 0.49224800 0.44769200 0.43273800 0.44433500 0.47134300 0.48980600 0.48045666 0.49879020 0.48945928,1,8,12,7,20
0.49333409 0.50144026 0.50152150 0.51049444 0.50170800 0.50903200 0.53039400 0.55358800 0.56243800 0.54397500 0.49224800 0.44769200 0.43273800 0.44433500 0.47134300 0.48980600 0.49121131 0.48928660 0.48524053 0.48650606,1,8,12,8,20
0.50212286 0.50048206 0.49210756 0.50825613 0.50965828 0.49448840 0.50279241 0.50170800 0.50903200 0.53039400 0.55358800 0.56243800 0.54397500 0.49224800 0.44769200 0.43273800 0.44433500 0.47134300 0.48980600 0.48213712,1,8,12,9,20
0.50085400 0.50100700 0.50009100 0.50085400 0.50085400 0.50054900 0.50100700 0.50100700 0.50146400 0.50039600 0.50085400 0.50070100 0.50070100 0.50115900 0.50054900 0.50085400 0.50009100 0.50131200 0.50070100 0.50100700,0,10,20,0,20
0.49822472 0.50582818 0.50718671 0.50802414 0.49473666 0.50262300 0.50659100 0.52185000 0.54885800 0.56121700 0.54779000 0.50842200 0.46234000 0.43991000 0.44692900 0.47180100 0.48965400 0.49780207 0.48436993 0.48059369,1,11,12,0,20
0.50372580 0.50002790 0.50925340 0.50882037 0.49894659 0.51172851 0.50262300 0.50659100 0.52185000 0.54885800 0.56121700 0.54779000 0.50842200 0.46234000 0.43991000 0.44692900 0.47180100 0.48965400 0.48555888 0.48994891,1,11,12,1,20
0.51138962 0.49587997 0.49347346 0.50131813 0.51252217 0.51049764 0.50762124 0.51047985 0.50262300 0.50659100 0.52185000 0.54885800 0.56121700 0.54779000 0.50842200 0.46234000 0.43991000 0.44692900 0.47180100 0.48965400,1,11,12,2,20
0.51053321 0.50300215 0.50262300 0.50659100 0.52185000 0.54885800 0.56121700 0.54779000 0.50842200 0.46234000 0.43991000 0.44692900 0.47180100 0.48965400 0.48604876 0.49498168 0.49282032 0.48717944 0.48171116 0.49448766,1,11,12,3,20
0.51140509 0.49741523 0.49503858 0.50262300 0.50659100 0.52185000 0.54885800 0.56121700 0.54779000 0.50842200 0.46234000 0.43991000 0.44692900 0.47180100 0.48965400 0.49613923 0.48286317 0.48337210 0.49160053 0.49699023,1,11,12,4,20
0.49651984 0.49880957 0.50262300 0.50659100 0.52185000 0.54885800 0.56121700 0.54779000 0.50842200 0.46234000 0.43991000 0.44692900 0.47180100 0.48965400 0.49508730 0.49889527 0.48966852 0.48267932 0.48013388 0.48435900,1,11,12,5,20
0.50619481 0.49501997 0.50262300 0.50659100 0.52185000 0.54885800 0.56121700 0.54779000 0.50842200 0.46234000 0.43991000 0.44692900 0.47180100 0.48965400 0.48977798 0.49345886 0.49124276 0.48377376 0.49561063 0.49387300,1,11,12,6,20
0.50742775 0.50262300 0.50659100 0.52185000 0.54885800 0.56121700 0.54779000 0.50842200 0.46234000 0.43991000 0.44692900 0.47180100 0.48965400 0.48242784 0.48228478 0.49802831 0.48764795 0.48575535 0.48943041 0.49284388,1,11,12,7,20
0.49832952 0.51116374 0.50262300 0.50659100 0.52185000 0.54885800 0.56121700 0.54779000 0.50842200 0.46234000 0.43991000 0.44692900 0.47180100 0.48965400 0.48034782 0.49073512 0.49227806 0.48193504 0.48260963 0.48806976,1,11,12,8,20
0.51199656 0.50455393 0.51132890 0.50874215 0.50196721 0.50834815 0.49292915 0.49476487 0.50262300 0.50659100 0.52185000 0.54885800 0.56121700 0.54779000 0.50842200 0.46234000 0.43991000 0.44692900 0.47180100 0.48965400,1,11,12,9,20
0.50054900 0.50039600 0.50039600 0.50115900 0.50039600 0.50100700 0.49993800 0.50085400 0.50024400 0.50100700 0.50085400 0.50115900 0.50100700 0.50054900 0.50054900 0.50085400 0.50146400 0.50070100 0.50039600 0.50009100,0,12,20,0,20
0.50466900 0.50558400 0.50497400 0.50543200 0.50543200 0.50558400 0.50634700 0.50588900 0.50634700 0.50573700 0.50619500 0.50543200 0.50604200 0.50588900 0.50558400 0.50588900 0.50588900 0.50634700 0.50558400 0.50665200,0,13,20,0,20
0.49963300 0.50009100 0.49963300 0.50024400 0.50024400 0.50039600 0.49948100 0.49963300 0.49948100 0.49932800 0.49978600 0.50009100 0.49993800 0.49887000 0.49948100 0.49932800 0.49978600 0.49978600 0.49963300 0.49932800,0,17,20,0,20
0.50688548 0.49558078 0.50093800 0.50475200 0.51970600 0.54717200 0.56059900 0.55113900 0.51070300 0.46492700 0.44219100 0.44432700 0.46813100 0.48766200 0.48826221 0.48973000 0.49483529 0.48967326 0.48595658 0.48520777,1,19,12,0,20
0.49945286 0.50398232 0.50830160 0.50001421 0.49588533 0.49566137 0.50586752 0.50093800 0.50475200 0.51970600 0.54717200 0.56059900 0.55113900 0.51070300 0.46492700 0.44219100 0.44432700 0.46813100 0.48766200 0.49383714,1,19,12,1,20
0.49225291 0.50283022 0.49384819 0.50744347 0.49713758 0.49380208 0.50937320 0.49423609 0.50093800 0.50475200 0.51970600 0.54717200 0.56059900 0.55113900 0.51070300 0.46492700 0.44219100 0.44432700 0.46813100 0.48766200,1,19,12,2,20
0.50093800 0.50475200 0.51970600 0.54717200 0.56059900 0.55113900 0.51070300 0.46492700 0.44219100 0.44432700 0.46813100 0.48766200 0.48346265 0.48090522 0.48016156 0.47832128 0.47898933 0.48131540 0.47895005 0.48943990,1,19,12,3,20
0.49880662 0.49729099 0.50102869 0.50845217 0.50093800 0.50475200 0.51970600 0.54717200 0.56059900 0.55113900 0.51070300 0.46492700 0.44219100 0.44432700 0.46813100 0.48766200 0.49451134 0.47875681 0.48144916 0.48252682,1,19,12,4,20
0.49591635 0.50236533 0.49926011 0.49190617 0.49840554 0.50141395 0.50093800 0.50475200 0.51970600 0.54717200 0.56059900 0.55113900 0.51070300 0.46492700 0.44219100 0.44432700 0.46813100 0.48766200 0.47989202 0.49416660,1,19,12,5,20
0.50093800 0.50475200 0.51970600 0.54717200 0.56059900 0.55113900 0.51070300 0.46492700 0.44219100 0.44432700 0.46813100 0.48766200 0.49594917 0.47984211 0.49436394 0.49551635 0.49701674 0.49355346 0.49311362 0.49044135,1,19,12,6,20
0.50093800 0.50475200 0.51970600 0.54717200 0.56059900 0.55113900 0.51070300 0.46492700 0.44219100 0.44432700 0.46813100 0.48766200 0.49310424 0.48053340 0.48836556 0.48793944 0.49463697 0.48693635 0.48542050 0.49038439,1,19,12,7,20
0.49371985 0.50049472 0.50093800 0.50475200 0.51970600 0.54717200 0.56059900 0.55113900 0.51070300 0.46492700 0.44219100 0.44432700 0.46813100 0.48766200 0.48604080 0.48244538 0.48507762 0.48505579 0.48429705 0.48531077,1,19,12,8,20
0.50465984 0.49686791 0.50093800 0.50475200 0.51970600 0.54717200 0.56059900 0.55113900 0.51070300 0.46492700 0.44219100 0.44432700 0.46813100 0.48766200 0.49641764 0.49578348 0.48728963 0.48431393 0.48835321 0.49446119,1,19,12,9,20
0.50943600 0.50974100 0.50989400 0.50974100 0.50958800 0.51019900 0.50989400 0.51019900 0.50913100 0.50974100 0.50928300 0.50989400 0.50989400 0.50958800 0.50958800 0.50958800 0.50989400 0.50913100 0.50974100 0.50974100,0,20,20,0,20
0.50451600 0.50360100 0.50421100 0.50390600 0.50436400 0.50421100 0.50405800 0.50390600 0.50344800 0.50314300 0.50299000 0.50299000 0.50360100 0.50299000 0.50314300 0.50222700 0.50344800 0.50268500 0.50314300 0.50329500,0,21,20,0,20
0.51065700 0.50668900 0.50623100 0.49631300 0.50592600 0.51019900 0.50653700 0.51325000 0.51157200 0.50958800 0.50745200 0.50791000 0.51157200 0.50791000 0.51019900 0.51019900 0.50318000 0.50775700 0.50943600 0.50638400,0,23,20,0,20
0.49887000 0.49993800 0.49627600 0.50054900 0.49291900 0.49780200 0.49719200 0.51123000 0.49932800 0.49444500 0.49459800 0.50436400 0.49612400 0.49322500 0.49993800 0.49398800 0.49810700 0.49765000 0.49963300 0.49978600,0,24,20,0,20
0.51080900 0.51019900 0.51050400 0.51050400 0.51050400 0.51080900 0.51035100 0.51080900 0.51050400 0.51080900 0.51065700 0.51080900 0.51080900 0.51096200 0.51096200 0.51080900 0.51080900 0.51080900 0.51111400 0.51080900,0,25,20,0,20
0.50115900 0.49566600 0.49932800 0.49475000 0.50238000 0.50726300 0.48193300 0.50863600 0.51046700 0.50695800 0.47659300 0.50115900 0.50100700 0.50039600 0.49322500 0.50787300 0.50543200 0.50588900 0.50421100 0.50421100,0,28,20,0,20
0.50100700 0.50024400 0.50085400 0.50054900 0.50100700 0.50070100 0.50054900 0.50070100 0.50009100 0.50085400 0.50070100 0.50100700 0.49993800 0.50054900 0.50009100 0.50085400 0.50131200 0.50039600 0.50054900 0.49963300,0,29,20,0,20
0.50989400 0.51004600 0.50989400 0.50989400 0.50958800 0.51019900 0.51004600 0.51004600 0.51019900 0.51019900 0.51019900 0.51050400 0.51035100 0.51050400 0.51065700 0.51004600 0.51019900 0.51019900 0.51050400 0.51019900,0,30,20,0,20
0.50146400 0.50039600 0.50085400 0.50070100 0.50070100 0.50115900 0.50054900 0.50085400 0.50009100 0.50131200 0.50070100 0.50100700 0.50115900 0.50085400 0.50146400 0.50024400 0.50100700 0.50039600 0.50070100 0.50177000,0,31,20,0,20
0.51111400 0.51096200 0.51126700 0.51111400 0.51111400 0.51141900 0.51080900 0.51080900 0.51141900 0.51096200 0.51141900 0.51141900 0.51187700 0.51141900 0.51111400 0.51126700 0.51141900 0.51172500 0.51126700 0.51172500,0,32,20,0,20
0.50604200 0.50588900 0.50558400 0.50588900 0.50588900 0.50634700 0.50558400 0.50665200 0.50680500 0.50634700 0.50665200 0.50619500 0.50665200 0.50604200 0.50619500 0.50619500 0.50695800 0.50588900 0.50604200 0.50619500,0,35,20,0,20
0.50054900 0.51153500 0.53381300 0.55853200 0.55685400 0.54296800 0.51733300 0.48086500 0.45309400 0.43280000 0.42517000 0.42272900 0.42623900 0.44958400 0.47445600 0.49063100 0.49536100 0.49871800 0.49795500 0.50401794,1,36,19,0,20
0.50120416 0.50054900 0.51153500 0.53381300 0.55853200 0.55685400 0.54296800 0.51733300 0.48086500 0.45309400 0.43280000 0.42517000 0.42272900 0.42623900 0.44958400 0.47445600 0.49063100 0.49536100 0.49871800 0.49795500,1,36,19,1,20
0.49630746 0.50054900 0.51153500 0.53381300 0.55853200 0.55685400 0.54296800 0.51733300 0.48086500 0.45309400 0.43280000 0.42517000 0.42272900 0.42623900 0.44958400 0.47445600 0.49063100 0.49536100 0.49871800 0.49795500,1,36,19,2,20
0.50525202 0.50054900 0.51153500 0.53381300 0.55853200 0.55685400 0.54296800 0.51733300 0.48086500 0.45309400 0.43280000 0.42517000 0.42272900 0.42623900 0.44958400 0.47445600 0.49063100 0.49536100 0.49871800 0.49795500,1,36,19,3,20
0.50054900 0.51153500 0.53381300 0.55853200 0.55685400 0.54296800 0.51733300 0.48086500 0.45309400 0.43280000 0.42517000 0.42272900 0.42623900 0.44958400 0.47445600 0.49063100 0.49536100 0.49871800 0.49795500 0.50183503,1,36,19,4,20
0.50054900 0.51153500 0.53381300 0.55853200 0.55685400 0.54296800 0.51733300 0.48086500 0.45309400 0.43280000 0.42517000 0.42272900 0.42623900 0.44958400 0.47445600 0.49063100 0.49536100 0.49871800 0.49795500 0.50513987,1,36,19,5,20
0.50283911 0.50054900 0.51153500 0.53381300 0.55853200 0.55685400 0.54296800 0.51733300 0.48086500 0.45309400 0.43280000 0.42517000 0.42272900 0.42623900 0.44958400 0.47445600 0.49063100 0.49536100 0.49871800 0.49795500,1,36,19,6,20
0.50054900 0.51153500 0.53381300 0.55853200 0.55685400 0.54296800 0.51733300 0.48086500 0.45309400 0.43280000 0.42517000 0.42272900 0.42623900 0.44958400 0.47445600 0.49063100 0.49536100 0.49871800 0.49795500 0.48989004,1,36,19,7,20
0.49222974 0.50054900 0.51153500 0.53381300 0.55853200 0.55685400 0.54296800 0.51733300 0.48086500 0.45309400 0.43280000 0.42517000 0.42272900 0.42623900 0.44958400 0.47445600 0.49063100 0.49536100 0.49871800 0.49795500,1,36,19,8,20
0.50927737 0.50054900 0.51153500 0.53381300 0.55853200 0.55685400 0.54296800 0.51733300 0.48086500 0.45309400 0.43280000 0.42517000 0.42272900 0.42623900 0.44958400 0.47445600 0.49063100 0.49536100 0.49871800 0.49795500,1,36,19,9,20
0.50913100 0.51080900 0.51035100 0.51050400 0.51080900 0.51004600 0.51157200 0.51019900 0.51004600 0.51035100 0.51065700 0.51019900 0.51019900 0.51035100 0.51019900 0.51004600 0.50989400 0.51019900 0.50974100 0.51019900,0,37,20,0,20
0.50299000 0.50299000 0.50375300 0.50390600 0.50482100 0.50421100 0.50344800 0.49200400 0.51809600 0.50421100 0.50222700 0.50024400 0.50238000 0.49993800 0.49642900 0.49429300 0.50543200 0.50726300 0.50115900 0.50299000,0,38,20,0,20
0.49627600 0.49017300 0.50131200 0.49993800 0.49841300 0.50054900 0.50283800 0.49948100 0.50711000 0.51412900 0.50161700 0.49932800 0.50039600 0.49932800 0.50131200 0.50421100 0.49368200 0.49917600 0.49749700 0.47537200,0,39,20,0,20
0.50990100 0.51463100 0.52501100 0.54347100 0.57429100 0.59749100 0.60161100 0.60207100 0.59840100 0.57170100 0.52837100 0.48137100 0.43620100 0.41804100 0.41576100 0.41606100 0.42598100 0.45070100 0.47527100 0.49236100,1,40,20,0,20
0.49627600 0.50421100 0.49719200 0.49765000 0.49307200 0.51077200 0.50054900 0.50405800 0.49887000 0.50543200 0.49948100 0.49871800 0.49932800 0.50146400 0.49902300 0.50344800 0.49688700 0.50161700 0.49658200 0.50955200,0,41,20,0,20
0.50543200 0.49948100 0.49871800 0.49932800 0.50146400 0.49902300 0.50344800 0.49688700 0.50161700 0.49658200 0.50955200 0.50222700 0.49902300 0.49993800 0.50009100 0.50054900 0.50131200 0.50085400 0.50115900 0.50054900,0,42,20,0,20
0.49768700 0.49692400 0.49768700 0.50134900 0.50684200 0.52149000 0.53934300 0.55628000 0.55246600 0.54758300 0.51782800 0.46533800 0.44489100 0.43512500 0.43100600 0.44031300 0.46701600 0.48349600 0.49433000 0.49524500,1,43,21,0,20
0.49692400 0.49768700 0.50134900 0.50684200 0.52149000 0.53934300 0.55628000 0.55246600 0.54758300 0.51782800 0.46533800 0.44489100 0.43512500 0.43100600 0.44031300 0.46701600 0.48349600 0.49433000 0.49524500 0.49448200,1,43,21,1,20
0.51019900 0.51019900 0.51187700 0.50760500 0.51447100 0.51325000 0.50623100 0.51523400 0.51386100 0.50531600 0.50821500 0.52118500 0.50760500 0.51126700 0.50699400 0.50943600 0.50928300 0.51264000 0.50989400 0.50653700,0,46,20,0,20
0.51203000 0.51264000 0.51187700 0.50546900 0.50836800 0.51508200 0.50760500 0.50653700 0.51050400 0.50546900 0.50928300 0.51187700 0.50989400 0.51447100 0.51035100 0.52347400 0.50852000 0.50836800 0.50943600 0.51355600,0,48,20,0,20
0.50375300 0.50192200 0.50192200 0.50253200 0.50299000 0.50329500 0.50390600 0.50360100 0.50314300 0.50161700 0.50314300 0.50299000 0.50283800 0.50344800 0.50329500 0.50344800 0.50283800 0.50314300 0.50360100 0.50314300,0,50,20,0,20
0.50155114 0.49843855 0.49251100 0.49342100 0.49602100 0.50471100 0.52089100 0.53935100 0.54942100 0.54683100 0.52547100 0.49037100 0.45497100 0.43315100 0.42827100 0.44078100 0.46199100 0.47832100 0.48686100 0.49068100,1,51,18,0,20
0.49251100 0.49342100 0.49602100 0.50471100 0.52089100 0.53935100 0.54942100 0.54683100 0.52547100 0.49037100 0.45497100 0.43315100 0.42827100 0.44078100 0.46199100 0.47832100 0.48686100 0.49068100 0.49251972 0.49622813,1,51,18,1,20
0.50129793 0.48765254 0.49251100 0.49342100 0.49602100 0.50471100 0.52089100 0.53935100 0.54942100 0.54683100 0.52547100 0.49037100 0.45497100 0.43315100 0.42827100 0.44078100 0.46199100 0.47832100 0.48686100 0.49068100,1,51,18,2,20
0.49428553 0.48453329 0.49251100 0.49342100 0.49602100 0.50471100 0.52089100 0.53935100 0.54942100 0.54683100 0.52547100 0.49037100 0.45497100 0.43315100 0.42827100 0.44078100 0.46199100 0.47832100 0.48686100 0.49068100,1,51,18,3,20
0.48603529 0.49251100 0.49342100 0.49602100 0.50471100 0.52089100 0.53935100 0.54942100 0.54683100 0.52547100 0.49037100 0.45497100 0.43315100 0.42827100 0.44078100 0.46199100 0.47832100 0.48686100 0.49068100 0.49195580,1,51,18,4,20
0.49393791 0.49251100 0.49342100 0.49602100 0.50471100 0.52089100 0.53935100 0.54942100 0.54683100 0.52547100 0.49037100 0.45497100 0.43315100 0.42827100 0.44078100 0.46199100 0.47832100 0.48686100 0.49068100 0.49001338,1,51,18,5,20
0.49771041 0.49840625 0.49251100 0.49342100 0.49602100 0.50471100 0.52089100 0.53935100 0.54942100 0.54683100 0.52547100 0.49037100 0.45497100 0.43315100 0.42827100 0.44078100 0.46199100 0.47832100 0.48686100 0.49068100,1,51,18,6,20
0.49235641 0.49251100 0.49342100 0.49602100 0.50471100 0.52089100 0.53935100 0.54942100 0.54683100 0.52547100 0.49037100 0.45497100 0.43315100 0.42827100 0.44078100 0.46199100 0.47832100 0.48686100 0.49068100 0.49263574,1,51,18,7,20
0.49251100 0.49342100 0.49602100 0.50471100 0.52089100 0.53935100 0.54942100 0.54683100 0.52547100 0.49037100 0.45497100 0.43315100 0.42827100 0.44078100 0.46199100 0.47832100 0.48686100 0.49068100 0.48321742 0.48316580,1,51,18,8,20
0.48438869 0.49562098 0.49251100 0.49342100 0.49602100 0.50471100 0.52089100 0.53935100 0.54942100 0.54683100 0.52547100 0.49037100 0.45497100 0.43315100 0.42827100 0.44078100 0.46199100 0.47832100 0.48686100 0.49068100,1,51,18,9,20
0.50958800 0.50943600 0.50974100 0.50974100 0.50943600 0.50958800 0.50974100 0.50958800 0.50958800 0.50989400 0.50989400 0.50974100 0.50974100 0.50989400 0.51004600 0.50974100 0.50958800 0.50989400 0.50989400 0.51004600,0,53,20,0,20
0.51141900 0.51111400 0.51126700 0.51080900 0.51096200 0.51096200 0.51080900 0.51080900 0.51096200 0.51080900 0.51080900 0.51050400 0.51080900 0.51080900 0.51096200 0.51080900 0.51096200 0.51111400 0.51065700 0.51080900,0,54,20,0,20
0.51004600 0.51019900 0.51065700 0.50989400 0.50974100 0.50989400 0.51004600 0.50897800 0.51080900 0.51004600 0.50974100 0.50989400 0.51004600 0.50989400 0.51050400 0.51019900 0.50806300 0.50684200 0.51126700 0.50501100,0,55,20,0,20
0.50360100 0.50421100 0.50360100 0.50451600 0.50482100 0.50466900 0.50466900 0.50421100 0.50451600 0.50405800 0.50512600 0.50512600 0.50497400 0.50497400 0.50527900 0.50512600 0.50482100 0.50543200 0.50466900 0.50558400,0,57,20,0,20
0.48895200 0.49978600 0.49673400 0.50222700 0.50573700 0.50421100 0.49887000 0.49871800 0.49963300 0.49887000 0.50009100 0.50024400 0.49963300 0.50009100 0.49963300 0.49993800 0.49948100 0.50054900 0.50054900 0.50054900,0,58,20,0,20
0.51447100 0.51035100 0.52347400 0.50852000 0.50836800 0.50943600 0.51355600 0.50653700 0.51264000 0.50958800 0.50943600 0.50928300 0.50928300 0.50928300 0.50958800 0.50989400 0.50958800 0.50958800 0.50958800 0.50943600,0,59,20,0,20
0.51096200 0.51111400 0.51126700 0.51141900 0.51111400 0.51126700 0.51172500 0.51126700 0.51141900 0.51126700 0.51126700 0.51141900 0.51111400 0.51126700 0.51080900 0.51096200 0.51096200 0.51080900 0.51080900 0.51096200,0,60,20,0,20
0.49948100 0.49902300 0.49917600 0.49856500 0.49856500 0.49871800 0.49749700 0.49902300 0.49856500 0.49932800 0.49795500 0.49581900 0.49856500 0.49932800 0.49841300 0.49948100 0.49932800 0.49841300 0.49749700 0.49658200,0,61,20,0,20
0.50460000 0.50475200 0.50460000 0.51085600 0.51680700 0.53008200 0.55113900 0.56456700 0.57265400 0.56914400 0.55953100 0.53786400 0.50521000 0.47408200 0.45134700 0.43288300 0.43242600 0.43257800 0.44142800 0.46477400,1,62,22,0,20
0.50475200 0.50460000 0.51085600 0.51680700 0.53008200 0.55113900 0.56456700 0.57265400 0.56914400 0.55953100 0.53786400 0.50521000 0.47408200 0.45134700 0.43288300 0.43242600 0.43257800 0.44142800 0.46477400 0.48628900,1,62,22,1,20
0.50460000 0.51085600 0.51680700 0.53008200 0.55113900 0.56456700 0.57265400 0.56914400 0.55953100 0.53786400 0.50521000 0.47408200 0.45134700 0.43288300 0.43242600 0.43257800 0.44142800 0.46477400 0.48628900 0.49254500,1,62,22,2,20
0.51065700 0.51111400 0.51111400 0.51096200 0.51111400 0.51065700 0.51065700 0.51050400 0.51050400 0.51203000 0.51080900 0.51050400 0.51019900 0.51065700 0.51096200 0.51080900 0.51050400 0.51019900 0.50974100 0.51050400,0,63,20,0,20
0.51080900 0.51111400 0.51065700 0.51080900 0.51035100 0.51035100 0.51035100 0.51019900 0.50821500 0.51004600 0.51080900 0.51050400 0.51004600 0.51019900 0.51065700 0.50989400 0.50974100 0.50989400 0.51004600 0.50897800,0,67,20,0,20
0.50314300 0.50390600 0.50314300 0.50390600 0.50421100 0.50360100 0.50375300 0.50192200 0.50192200 0.50253200 0.50299000 0.50329500 0.50390600 0.50360100 0.50314300 0.50161700 0.50314300 0.50299000 0.50283800 0.50344800,0,68,20,0,20
0.49871800 0.49841300 0.49703900 0.49627600 0.49658200 0.50009100 0.49642900 0.49246200 0.49398800 0.49414000 0.49703900 0.49139400 0.47888100 0.48651100 0.49398800 0.49063100 0.49154600 0.49398800 0.49902300 0.49444500,0,69,20,0,20
0.50644180 0.50437610 0.49761147 0.50892739 0.50620557 0.49634703 0.50094500 0.50292900 0.51437300 0.54168600 0.56915200 0.55664000 0.51589900 0.46050900 0.43746800 0.44326700 0.46905400 0.49102700 0.48835958 0.48738240,1,70,12,0,20
0.49408429 0.49388735 0.50968403 0.50094500 0.50292900 0.51437300 0.54168600 0.56915200 0.55664000 0.51589900 0.46050900 0.43746800 0.44326700 0.46905400 0.49102700 0.48980737 0.48873528 0.49553828 0.49206784 0.49959326,1,70,12,1,20
0.50053161 0.49846752 0.51069603 0.50094500 0.50292900 0.51437300 0.54168600 0.56915200 0.55664000 0.51589900 0.46050900 0.43746800 0.44326700 0.46905400 0.49102700 0.49530405 0.49988895 0.48353351 0.49791186 0.49371928,1,70,12,2,20
0.49336914 0.50271350 0.50467396 0.49117262 0.50002963 0.50746529 0.49684445 0.50094500 0.50292900 0.51437300 0.54168600 0.56915200 0.55664000 0.51589900 0.46050900 0.43746800 0.44326700 0.46905400 0.49102700 0.49021284,1,70,12,3,20
0.49697606 0.50932966 0.50094500 0.50292900 0.51437300 0.54168600 0.56915200 0.55664000 0.51589900 0.46050900 0.43746800 0.44326700 0.46905400 0.49102700 0.49655192 0.48337854 0.50078930 0.49847490 0.48678273 0.49764401,1,70,12,4,20
0.49305851 0.51094596 0.50426496 0.50094500 0.50292900 0.51437300 0.54168600 0.56915200 0.55664000 0.51589900 0.46050900 0.43746800 0.44326700 0.46905400 0.49102700 0.49397562 0.48298281 0.49882516 0.48177604 0.48593658,1,70,12,5,20
0.50649082 0.49489768 0.50917329 0.50407629 0.50094500 0.50292900 0.51437300 0.54168600 0.56915200 0.55664000 0.51589900 0.46050900 0.43746800 0.44326700 0.46905400 0.49102700 0.48191673 0.48131311 0.48222108 0.49310748,1,70,12,6,20
0.50698603 0.50094500 0.50292900 0.51437300 0.54168600 0.56915200 0.55664000 0.51589900 0.46050900 0.43746800 0.44326700 0.46905400 0.49102700 0.48589190 0.49788977 0.48233056 0.49693826 0.49942936 0.49637150 0.49491831,1,70,12,7,20
0.49173064 0.49496937 0.49342930 0.50103579 0.50585803 0.50355015 0.50798089 0.50094500 0.50292900 0.51437300 0.54168600 0.56915200 0.55664000 0.51589900 0.46050900 0.43746800 0.44326700 0.46905400 0.49102700 0.48425501,1,70,12,8,20
0.50564629 0.49479423 0.49635151 0.50515103 0.51056725 0.50318009 0.49201817 0.50094500 0.50292900 0.51437300 0.54168600 0.56915200 0.55664000 0.51589900 0.46050900 0.43746800 0.44326700 0.46905400 0.49102700 0.49331143,1,70,12,9,20
0.51050400 0.51019900 0.51080900 0.51096200 0.51050400 0.51080900 0.51050400 0.51050400 0.51050400 0.51080900 0.51065700 0.51080900 0.51080900 0.51050400 0.51050400 0.51035100 0.51050400 0.51080900 0.51050400 0.51080900,0,71,20,0,20
0.51080900 0.51080900 0.51065700 0.51050400 0.51096200 0.51080900 0.51080900 0.51050400 0.51065700 0.51096200 0.51065700 0.51126700 0.51080900 0.51080900 0.51080900 0.51080900 0.51080900 0.51080900 0.51080900 0.51080900,0,73,20,0,20
0.50543200 0.50543200 0.50558400 0.50634700 0.50588900 0.50634700 0.50573700 0.50619500 0.50543200 0.50604200 0.50588900 0.50558400 0.50588900 0.50588900 0.50634700 0.50558400 0.50665200 0.50680500 0.50634700 0.50665200,0,74,20,0,20
0.50211200 0.50501100 0.51752300 0.54697200 0.56665600 0.56314700 0.52484700 0.47037300 0.43756700 0.43878800 0.46777900 0.48929400 0.49681241 0.49339582 0.48289654 0.48130326 0.48310019 0.49868898 0.48848296 0.49485396,1,75,12,0,20
0.50211200 0.50501100 0.51752300 0.54697200 0.56665600 0.56314700 0.52484700 0.47037300 0.43756700 0.43878800 0.46777900 0.48929400 0.49196375 0.49071125 0.48234857 0.49802348 0.48540593 0.49082093 0.49320397 0.49221476,1,75,12,1,20
0.49505108 0.50227976 0.50018458 0.50211200 0.50501100 0.51752300 0.54697200 0.56665600 0.56314700 0.52484700 0.47037300 0.43756700 0.43878800 0.46777900 0.48929400 0.48878844 0.48184142 0.48213259 0.48495055 0.48547173,1,75,12,2,20
0.50066397 0.50434113 0.50481596 0.50034077 0.50027996 0.49644072 0.50388559 0.49843736 0.50211200 0.50501100 0.51752300 0.54697200 0.56665600 0.56314700 0.52484700 0.47037300 0.43756700 0.43878800 0.46777900 0.48929400,1,75,12,3,20
0.50047311 0.50159247 0.49660068 0.50356728 0.50343299 0.50616911 0.50508347 0.50517354 0.50211200 0.50501100 0.51752300 0.54697200 0.56665600 0.56314700 0.52484700 0.47037300 0.43756700 0.43878800 0.46777900 0.48929400,1,75,12,4,20
0.50211200 0.50501100 0.51752300 0.54697200 0.56665600 0.56314700 0.52484700 0.47037300 0.43756700 0.43878800 0.46777900 0.48929400 0.48569699 0.49491955 0.49025584 0.48795173 0.49176029 0.48656682 0.48954333 0.49392675,1,75,12,5,20
0.51056871 0.50218497 0.50251922 0.50813474 0.49838534 0.50211200 0.50501100 0.51752300 0.54697200 0.56665600 0.56314700 0.52484700 0.47037300 0.43756700 0.43878800 0.46777900 0.48929400 0.49589717 0.48917934 0.48177564,1,75,12,6,20
0.49351703 0.50898076 0.49318581 0.49770569 0.49878059 0.49554426 0.49837415 0.50211200 0.50501100 0.51752300 0.54697200 0.56665600 0.56314700 0.52484700 0.47037300 0.43756700 0.43878800 0.46777900 0.48929400 0.49404392,1,75,12,7,20
0.50868311 0.50927308 0.49954644 0.49515500 0.50413733 0.49447332 0.49939898 0.51131931 0.50211200 0.50501100 0.51752300 0.54697200 0.56665600 0.56314700 0.52484700 0.47037300 0.43756700 0.43878800 0.46777900 0.48929400,1,75,12,8,20
0.50211200 0.50501100 0.51752300 0.54697200 0.56665600 0.56314700 0.52484700 0.47037300 0.43756700 0.43878800 0.46777900 0.48929400 0.49899111 0.49461957 0.48559418 0.49296694 0.49331416 0.48709886 0.49205144 0.47971808,1,75,12,9,20
0.50482100 0.50512600 0.50436400 0.50512600 0.50512600 0.50497400 0.50604200 0.50558400 0.50558400 0.50512600 0.50558400 0.50512600 0.50573700 0.50619500 0.50527900 0.50543200 0.50543200 0.50558400 0.50482100 0.50588900,0,76,20,0,20
0.50360100 0.50360100 0.50344800 0.50390600 0.50360100 0.50360100 0.50421100 0.50421100 0.50421100 0.50360100 0.50421100 0.50360100 0.50451600 0.50482100 0.50466900 0.50466900 0.50421100 0.50451600 0.50405800 0.50512600,0,78,20,0,20
0.49291900 0.49780200 0.49719200 0.51123000 0.49932800 0.49444500 0.49459800 0.50436400 0.49612400 0.49322500 0.49993800 0.49398800 0.49810700 0.49765000 0.49963300 0.49978600 0.50009100 0.49978600 0.50009100 0.49978600,0,80,20,0,20
0.51019900 0.51050400 0.51019900 0.51035100 0.51004600 0.51019900 0.51019900 0.51019900 0.51050400 0.51080900 0.51019900 0.51080900 0.51004600 0.51004600 0.51035100 0.51019900 0.51065700 0.51035100 0.51080900 0.51050400,0,81,20,0,20
0.47741362 0.47052025 0.47056137 0.48335081 0.47693500 0.48639500 0.50256900 0.50653700 0.52316900 0.53827500 0.52576300 0.49249900 0.45206300 0.43009000 0.41956200 0.44443300 0.46808400 0.47189900 0.48425900 0.49373368,1,82,15,0,20
0.47800275 0.47693500 0.48639500 0.50256900 0.50653700 0.52316900 0.53827500 0.52576300 0.49249900 0.45206300 0.43009000 0.41956200 0.44443300 0.46808400 0.47189900 0.48425900 0.49082690 0.49375671 0.47731658 0.48325650,1,82,15,1,20
0.46892343 0.48180604 0.47567168 0.47634984 0.47027075 0.47693500 0.48639500 0.50256900 0.50653700 0.52316900 0.53827500 0.52576300 0.49249900 0.45206300 0.43009000 0.41956200 0.44443300 0.46808400 0.47189900 0.48425900,1,82,15,2,20
0.47084791 0.48470148 0.47693500 0.48639500 0.50256900 0.50653700 0.52316900 0.53827500 0.52576300 0.49249900 0.45206300 0.43009000 0.41956200 0.44443300 0.46808400 0.47189900 0.48425900 0.47543869 0.47908425 0.48023111,1,82,15,3,20
0.47858415 0.47693500 0.48639500 0.50256900 0.50653700 0.52316900 0.53827500 0.52576300 0.49249900 0.45206300 0.43009000 0.41956200 0.44443300 0.46808400 0.47189900 0.48425900 0.48412902 0.47620316 0.47929375 0.49091443,1,82,15,4,20
0.47955983 0.47978038 0.47693500 0.48639500 0.50256900 0.50653700 0.52316900 0.53827500 0.52576300 0.49249900 0.45206300 0.43009000 0.41956200 0.44443300 0.46808400 0.47189900 0.48425900 0.48755590 0.48935153 0.47569940,1,82,15,5,20
0.47768908 0.47385317 0.48350676 0.47660253 0.47693500 0.48639500 0.50256900 0.50653700 0.52316900 0.53827500 0.52576300 0.49249900 0.45206300 0.43009000 0.41956200 0.44443300 0.46808400 0.47189900 0.48425900 0.48946241,1,82,15,6,20
0.48365054 0.47702641 0.47693500 0.48639500 0.50256900 0.50653700 0.52316900 0.53827500 0.52576300 0.49249900 0.45206300 0.43009000 0.41956200 0.44443300 0.46808400 0.47189900 0.48425900 0.49219217 0.48594662 0.49104394,1,82,15,7,20
0.47691243 0.47753424 0.47693500 0.48639500 0.50256900 0.50653700 0.52316900 0.53827500 0.52576300 0.49249900 0.45206300 0.43009000 0.41956200 0.44443300 0.46808400 0.47189900 0.48425900 0.47660731 0.48229393 0.49234298,1,82,15,8,20
0.47943094 0.47078266 0.47693500 0.48639500 0.50256900 0.50653700 0.52316900 0.53827500 0.52576300 0.49249900 0.45206300 0.43009000 0.41956200 0.44443300 0.46808400 0.47189900 0.48425900 0.48113758 0.47828524 0.47505465,1,82,15,9,20
0.51080900 0.51172500 0.51279300 0.50867300 0.51035100 0.51050400 0.51325000 0.51004600 0.50409500 0.51050400 0.49417700 0.50913100 0.51615000 0.50852000 0.50806300 0.51203000 0.51096200 0.51096200 0.51080900 0.51096200,0,83,20,0,20
0.51050400 0.51035100 0.51080900 0.51080900 0.51050400 0.51050400 0.51035100 0.50958800 0.51050400 0.51065700 0.51035100 0.51096200 0.51080900 0.51019900 0.51019900 0.51187700 0.50760500 0.51447100 0.51325000 0.50623100,0,84,20,0,20
0.50489284 0.50594100 0.50777100 0.51631100 0.53340100 0.55507100 0.56773100 0.57262100 0.57628100 0.57353100 0.54530100 0.50502100 0.46001100 0.43376100 0.42613100 0.42079100 0.42155100 0.44429100 0.47069100 0.49037100,1,85,19,0,20
0.50204596 0.50594100 0.50777100 0.51631100 0.53340100 0.55507100 0.56773100 0.57262100 0.57628100 0.57353100 0.54530100 0.50502100 0.46001100 0.43376100 0.42613100 0.42079100 0.42155100 0.44429100 0.47069100 0.49037100,1,85,19,1,20
0.50594100 0.50777100 0.51631100 0.53340100 0.55507100 0.56773100 0.57262100 0.57628100 0.57353100 0.54530100 0.50502100 0.46001100 0.43376100 0.42613100 0.42079100 0.42155100 0.44429100 0.47069100 0.49037100 0.48070705,1,85,19,2,20
0.50144869 0.50594100 0.50777100 0.51631100 0.53340100 0.55507100 0.56773100 0.57262100 0.57628100 0.57353100 0.54530100 0.50502100 0.46001100 0.43376100 0.42613100 0.42079100 0.42155100 0.44429100 0.47069100 0.49037100,1,85,19,3,20
0.50594100 0.50777100 0.51631100 0.53340100 0.55507100 0.56773100 0.57262100 0.57628100 0.57353100 0.54530100 0.50502100 0.46001100 0.43376100 0.42613100 0.42079100 0.42155100 0.44429100 0.47069100 0.49037100 0.49299487,1,85,19,4,20
0.51569162 0.50594100 0.50777100 0.51631100 0.53340100 0.55507100 0.56773100 0.57262100 0.57628100 0.57353100 0.54530100 0.50502100 0.46001100 0.43376100 0.42613100 0.42079100 0.42155100 0.44429100 0.47069100 0.49037100,1,85,19,5,20
0.50548577 0.50594100 0.50777100 0.51631100 0.53340100 0.55507100 0.56773100 0.57262100 0.57628100 0.57353100 0.54530100 0.50502100 0.46001100 0.43376100 0.42613100 0.42079100 0.42155100 0.44429100 0.47069100 0.49037100,1,85,19,6,20
0.51123178 0.50594100 0.50777100 0.51631100 0.53340100 0.55507100 0.56773100 0.57262100 0.57628100 0.57353100 0.54530100 0.50502100 0.46001100 0.43376100 0.42613100 0.42079100 0.42155100 0.44429100 0.47069100 0.49037100,1,85,19,7,20
0.51040737 0.50594100 0.50777100 0.51631100 0.53340100 0.55507100 0.56773100 0.57262100 0.57628100 0.57353100 0.54530100 0.50502100 0.46001100 0.43376100 0.42613100 0.42079100 0.42155100 0.44429100 0.47069100 0.49037100,1,85,19,8,20
0.51531530 0.50594100 0.50777100 0.51631100 0.53340100 0.55507100 0.56773100 0.57262100 0.57628100 0.57353100 0.54530100 0.50502100 0.46001100 0.43376100 0.42613100 0.42079100 0.42155100 0.44429100 0.47069100 0.49037100,1,85,19,9,20
0.50421100 0.50421100 0.50360100 0.50421100 0.50360100 0.50451600 0.50482100 0.50466900 0.50466900 0.50421100 0.50451600 0.50405800 0.50512600 0.50512600 0.50497400 0.50497400 0.50527900 0.50512600 0.50482100 0.50543200,0,86,20,0,20
0.50222700 0.50024400 0.50238000 0.49993800 0.49642900 0.49429300 0.50543200 0.50726300 0.50115900 0.50299000 0.50329500 0.50222700 0.49841300 0.50497400 0.50375300 0.50436400 0.50390600 0.50512600 0.50543200 0.50512600,0,87,20,0,20
0.51065700 0.51080900 0.51050400 0.51050400 0.51080900 0.51080900 0.51065700 0.51050400 0.51096200 0.51080900 0.51080900 0.51050400 0.51065700 0.51096200 0.51065700 0.51126700 0.51080900 0.51080900 0.51080900 0.51080900,0,88,20,0,20
0.50777538 0.49270840 0.50508530 0.49923374 0.50043300 0.50623100 0.52576300 0.56711400 0.58664500 0.58130500 0.53201900 0.45969200 0.41803600 0.41132200 0.44336500 0.47571400 0.49234600 0.49707600 0.49813187 0.50014002,1,90,14,0,20
0.50983744 0.51013295 0.49619390 0.50511212 0.50543700 0.50043300 0.50623100 0.52576300 0.56711400 0.58664500 0.58130500 0.53201900 0.45969200 0.41803600 0.41132200 0.44336500 0.47571400 0.49234600 0.49707600 0.49402381,1,90,14,1,20
0.50043300 0.50623100 0.52576300 0.56711400 0.58664500 0.58130500 0.53201900 0.45969200 0.41803600 0.41132200 0.44336500 0.47571400 0.49234600 0.49707600 0.48794863 0.50259042 0.49687120 0.50673001 0.49637957 0.50657844,1,90,14,2,20
0.50043300 0.50623100 0.52576300 0.56711400 0.58664500 0.58130500 0.53201900 0.45969200 0.41803600 0.41132200 0.44336500 0.47571400 0.49234600 0.49707600 0.49531786 0.50291529 0.48882094 0.49817875 0.50308187 0.50552036,1,90,14,3,20
0.49116439 0.49788484 0.49139915 0.50043300 0.50623100 0.52576300 0.56711400 0.58664500 0.58130500 0.53201900 0.45969200 0.41803600 0.41132200 0.44336500 0.47571400 0.49234600 0.49707600 0.48930734 0.50056161 0.50131622,1,90,14,4,20
0.50591215 0.50774846 0.50522578 0.50645564 0.49140446 0.50043300 0.50623100 0.52576300 0.56711400 0.58664500 0.58130500 0.53201900 0.45969200 0.41803600 0.41132200 0.44336500 0.47571400 0.49234600 0.49707600 0.49179775,1,90,14,5,20
0.50043300 0.50623100 0.52576300 0.56711400 0.58664500 0.58130500 0.53201900 0.45969200 0.41803600 0.41132200 0.44336500 0.47571400 0.49234600 0.49707600 0.50419662 0.48722396 0.49736688 0.50060101 0.48772316 0.49511465,1,90,14,6,20
0.50835255 0.50386823 0.49518162 0.50749473 0.50043300 0.50623100 0.52576300 0.56711400 0.58664500 0.58130500 0.53201900 0.45969200 0.41803600 0.41132200 0.44336500 0.47571400 0.49234600 0.49707600 0.49405440 0.50410157,1,90,14,7,20
0.50224097 0.49837002 0.49592560 0.50817085 0.49417946 0.49212204 0.50043300 0.50623100 0.52576300 0.56711400 0.58664500 0.58130500 0.53201900 0.45969200 0.41803600 0.41132200 0.44336500 0.47571400 0.49234600 0.49707600,1,90,14,8,20
0.49726880 0.50478955 0.50043300 0.50623100 0.52576300 0.56711400 0.58664500 0.58130500 0.53201900 0.45969200 0.41803600 0.41132200 0.44336500 0.47571400 0.49234600 0.49707600 0.50318867 0.50699253 0.49302706 0.49524561,1,90,14,9,20
0.50573700 0.50604200 0.50634700 0.50588900 0.50421100 0.50558400 0.50512600 0.50619500 0.50512600 0.50512600 0.50451600 0.50482100 0.50680500 0.50527900 0.50588900 0.50436400 0.50482100 0.50421100 0.50497400 0.50283800,0,91,20,0,20
0.50543200 0.50161700 0.50421100 0.50131200 0.50131200 0.50299000 0.50283800 0.50329500 0.50207500 0.50299000 0.50177000 0.50146400 0.50177000 0.50238000 0.50360100 0.50207500 0.50207500 0.50085400 0.50207500 0.50177000,0,92,20,0,20
0.48590000 0.50299000 0.50360100 0.51351900 0.50177000 0.50115900 0.50329500 0.50207500 0.50405800 0.50436400 0.50390600 0.50375300 0.50375300 0.50405800 0.50314300 0.50421100 0.50360100 0.50375300 0.50360100 0.50421100,0,94,20,0,20
0.51050233 0.50897800 0.52225300 0.52835700 0.55094000 0.56833500 0.56665600 0.57459100 0.55444900 0.51935400 0.48044400 0.45297800 0.43741400 0.42810600 0.44504400 0.47586600 0.49356700 0.50424800 0.50760500 0.51770796,1,95,18,0,20
0.50897800 0.52225300 0.52835700 0.55094000 0.56833500 0.56665600 0.57459100 0.55444900 0.51935400 0.48044400 0.45297800 0.43741400 0.42810600 0.44504400 0.47586600 0.49356700 0.50424800 0.50760500 0.51168373 0.50953822,1,95,18,1,20
0.50897800 0.52225300 0.52835700 0.55094000 0.56833500 0.56665600 0.57459100 0.55444900 0.51935400 0.48044400 0.45297800 0.43741400 0.42810600 0.44504400 0.47586600 0.49356700 0.50424800 0.50760500 0.51603731 0.50754239,1,95,18,2,20
0.50153403 0.50897800 0.52225300 0.52835700 0.55094000 0.56833500 0.56665600 0.57459100 0.55444900 0.51935400 0.48044400 0.45297800 0.43741400 0.42810600 0.44504400 0.47586600 0.49356700 0.50424800 0.50760500 0.50487162,1,95,18,3,20
0.50897800 0.52225300 0.52835700 0.55094000 0.56833500 0.56665600 0.57459100 0.55444900 0.51935400 0.48044400 0.45297800 0.43741400 0.42810600 0.44504400 0.47586600 0.49356700 0.50424800 0.50760500 0.50155392 0.49781165,1,95,18,4,20
0.50897800 0.52225300 0.52835700 0.55094000 0.56833500 0.56665600 0.57459100 0.55444900 0.51935400 0.48044400 0.45297800 0.43741400 0.42810600 0.44504400 0.47586600 0.49356700 0.50424800 0.50760500 0.50665639 0.51033673,1,95,18,5,20
0.50735704 0.51832710 0.50897800 0.52225300 0.52835700 0.55094000 0.56833500 0.56665600 0.57459100 0.55444900 0.51935400 0.48044400 0.45297800 0.43741400 0.42810600 0.44504400 0.47586600 0.49356700 0.50424800 0.50760500,1,95,18,6,20
0.51410775 0.50897800 0.52225300 0.52835700 0.55094000 0.56833500 0.56665600 0.57459100 0.55444900 0.51935400 0.48044400 0.45297800 0.43741400 0.42810600 0.44504400 0.47586600 0.49356700 0.50424800 0.50760500 0.50843456,1,95,18,7,20
0.51706051 0.50358481 0.50897800 0.52225300 0.52835700 0.55094000 0.56833500 0.56665600 0.57459100 0.55444900 0.51935400 0.48044400 0.45297800 0.43741400 0.42810600 0.44504400 0.47586600 0.49356700 0.50424800 0.50760500,1,95,18,8,20
0.50897800 0.52225300 0.52835700 0.55094000 0.56833500 0.56665600 0.57459100 0.55444900 0.51935400 0.48044400 0.45297800 0.43741400 0.42810600 0.44504400 0.47586600 0.49356700 0.50424800 0.50760500 0.50405872 0.51591073,1,95,18,9,20
0.49627600 0.50054900 0.49291900 0.49780200 0.49719200 0.51123000 0.49932800 0.49444500 0.49459800 0.50436400 0.49612400 0.49322500 0.49993800 0.49398800 0.49810700 0.49765000 0.49963300 0.49978600 0.50009100 0.49978600,0,97,20,0,20
0.50059100 0.49586100 0.50182100 0.50929100 0.51845100 0.53630100 0.56636100 0.57689100 0.58269100 0.57597100 0.56132100 0.53279100 0.47343100 0.44627100 0.41789100 0.40767100 0.40370100 0.41454100 0.43254100 0.45451100,1,98,24,0,20
0.49586100 0.50182100 0.50929100 0.51845100 0.53630100 0.56636100 0.57689100 0.58269100 0.57597100 0.56132100 0.53279100 0.47343100 0.44627100 0.41789100 0.40767100 0.40370100 0.41454100 0.43254100 0.45451100 0.47298100,1,98,24,1,20
0.50182100 0.50929100 0.51845100 0.53630100 0.56636100 0.57689100 0.58269100 0.57597100 0.56132100 0.53279100 0.47343100 0.44627100 0.41789100 0.40767100 0.40370100 0.41454100 0.43254100 0.45451100 0.47298100 0.48503100,1,98,24,2,20
0.50929100 0.51845100 0.53630100 0.56636100 0.57689100 0.58269100 0.57597100 0.56132100 0.53279100 0.47343100 0.44627100 0.41789100 0.40767100 0.40370100 0.41454100 0.43254100 0.45451100 0.47298100 0.48503100 0.49190100,1,98,24,3,20
0.51845100 0.53630100 0.56636100 0.57689100 0.58269100 0.57597100 0.56132100 0.53279100 0.47343100 0.44627100 0.41789100 0.40767100 0.40370100 0.41454100 0.43254100 0.45451100 0.47298100 0.48503100 0.49190100 0.49510100,1,98,24,4,20
0.51019900 0.51019900 0.51050400 0.51019900 0.51080900 0.51096200 0.51050400 0.51080900 0.51050400 0.51050400 0.51050400 0.51080900 0.51065700 0.51080900 0.51080900 0.51050400 0.51050400 0.51035100 0.51050400 0.51080900,0,99,20,0,20
0.51080900 0.51080900 0.51080900 0.51111400 0.51080900 0.51065700 0.51065700 0.51080900 0.51080900 0.51080900 0.51096200 0.51080900 0.51080900 0.51080900 0.51096200 0.51080900 0.51050400 0.51096200 0.51096200 0.51080900,0,100,20,0,20
0.50115900 0.50054900 0.50085400 0.50009100 0.50131200 0.50070100 0.50100700 0.50115900 0.50085400 0.50146400 0.50024400 0.50100700 0.50039600 0.50070100 0.50177000 0.49948100 0.50070100 0.49917600 0.50009100 0.50085400,0,101,20,0,20
0.49424404 0.48610100 0.49449100 0.51250100 0.55263100 0.58238100 0.58559100 0.56651100 0.50151100 0.42491100 0.39210100 0.38493100 0.40630100 0.44337100 0.46764100 0.47923100 0.47835798 0.48121357 0.48852136 0.47657675,1,102,15,0,20
0.49219008 0.48610100 0.49449100 0.51250100 0.55263100 0.58238100 0.58559100 0.56651100 0.50151100 0.42491100 0.39210100 0.38493100 0.40630100 0.44337100 0.46764100 0.47923100 0.47574985 0.48496670 0.48116199 0.47379375,1,102,15,1,20
0.48255510 0.47789772 0.47695909 0.48610100 0.49449100 0.51250100 0.55263100 0.58238100 0.58559100 0.56651100 0.50151100 0.42491100 0.39210100 0.38493100 0.40630100 0.44337100 0.46764100 0.47923100 0.47628811 0.47001125,1,102,15,2,20
0.47959673 0.49047947 0.48610100 0.49449100 0.51250100 0.55263100 0.58238100 0.58559100 0.56651100 0.50151100 0.42491100 0.39210100 0.38493100 0.40630100 0.44337100 0.46764100 0.47923100 0.48321995 0.48380440 0.47572597,1,102,15,3,20
0.48610100 0.49449100 0.51250100 0.55263100 0.58238100 0.58559100 0.56651100 0.50151100 0.42491100 0.39210100 0.38493100 0.40630100 0.44337100 0.46764100 0.47923100 0.48102966 0.47206221 0.47240136 0.48293249 0.47296158,1,102,15,4,20
0.48624280 0.49566308 0.47645690 0.47670136 0.49568856 0.48610100 0.49449100 0.51250100 0.55263100 0.58238100 0.58559100 0.56651100 0.50151100 0.42491100 0.39210100 0.38493100 0.40630100 0.44337100 0.46764100 0.47923100,1,102,15,5,20
0.47884662 0.49382616 0.49349713 0.48610100 0.49449100 0.51250100 0.55263100 0.58238100 0.58559100 0.56651100 0.50151100 0.42491100 0.39210100 0.38493100 0.40630100 0.44337100 0.46764100 0.47923100 0.47992493 0.48156566,1,102,15,6,20
0.48169084 0.47736129 0.48793978 0.48610100 0.49449100 0.51250100 0.55263100 0.58238100 0.58559100 0.56651100 0.50151100 0.42491100 0.39210100 0.38493100 0.40630100 0.44337100 0.46764100 0.47923100 0.47529661 0.48236749,1,102,15,7,20
0.47673209 0.48796206 0.48087601 0.49337090 0.48131124 0.48610100 0.49449100 0.51250100 0.55263100 0.58238100 0.58559100 0.56651100 0.50151100 0.42491100 0.39210100 0.38493100 0.40630100 0.44337100 0.46764100 0.47923100,1,102,15,8,20
0.48825482 0.48714205 0.48408206 0.48955467 0.49049087 0.48610100 0.49449100 0.51250100 0.55263100 0.58238100 0.58559100 0.56651100 0.50151100 0.42491100 0.39210100 0.38493100 0.40630100 0.44337100 0.46764100 0.47923100,1,102,15,9,20
0.49536100 0.49887000 0.49993800 0.49627600 0.50054900 0.49291900 0.49780200 0.49719200 0.51123000 0.49932800 0.49444500 0.49459800 0.50436400 0.49612400 0.49322500 0.49993800 0.49398800 0.49810700 0.49765000 0.49963300,0,103,20,0,20
0.49416082 0.49856267 0.48752563 0.48939031 0.47956686 0.49489656 0.48910500 0.48895200 0.49154600 0.51443400 0.53350800 0.50802600 0.45355200 0.41845700 0.41479400 0.42929000 0.44271800 0.45339900 0.45376589 0.45172979,1,104,12,0,20
0.48116334 0.49672832 0.48705090 0.49267706 0.48224529 0.48910500 0.48895200 0.49154600 0.51443400 0.53350800 0.50802600 0.45355200 0.41845700 0.41479400 0.42929000 0.44271800 0.45339900 0.46176965 0.44756723 0.44794991,1,104,12,1,20
0.49717685 0.48347339 0.48851418 0.49367314 0.49650742 0.48673876 0.48943797 0.49383399 0.48910500 0.48895200 0.49154600 0.51443400 0.53350800 0.50802600 0.45355200 0.41845700 0.41479400 0.42929000 0.44271800 0.45339900,1,104,12,2,20
0.49362699 0.49464089 0.49047320 0.48136961 0.49700841 0.49625713 0.49493704 0.48910500 0.48895200 0.49154600 0.51443400 0.53350800 0.50802600 0.45355200 0.41845700 0.41479400 0.42929000 0.44271800 0.45339900 0.44614212,1,104,12,3,20
0.48910500 0.48895200 0.49154600 0.51443400 0.53350800 0.50802600 0.45355200 0.41845700 0.41479400 0.42929000 0.44271800 0.45339900 0.45781693 0.44475069 0.46209020 0.45117090 0.45737644 0.46042797 0.45148801 0.45011879,1,104,12,4,20
0.49123243 0.48910500 0.48895200 0.49154600 0.51443400 0.53350800 0.50802600 0.45355200 0.41845700 0.41479400 0.42929000 0.44271800 0.45339900 0.45486782 0.45175117 0.45524478 0.46129506 0.45281212 0.44789913 0.45117201,1,104,12,5,20
0.48188794 0.48250935 0.49271581 0.48910500 0.48895200 0.49154600 0.51443400 0.53350800 0.50802600 0.45355200 0.41845700 0.41479400 0.42929000 0.44271800 0.45339900 0.45048777 0.46164902 0.44874888 0.44612511 0.45799655,1,104,12,6,20
0.49655967 0.48476397 0.48327659 0.48910500 0.48895200 0.49154600 0.51443400 0.53350800 0.50802600 0.45355200 0.41845700 0.41479400 0.42929000 0.44271800 0.45339900 0.44770007 0.45379821 0.45282621 0.44903621 0.44515028,1,104,12,7,20
0.48910500 0.48895200 0.49154600 0.51443400 0.53350800 0.50802600 0.45355200 0.41845700 0.41479400 0.42929000 0.44271800 0.45339900 0.46172943 0.45616508 0.45331751 0.44633853 0.44890919 0.44967703 0.45820147 0.46023101,1,104,12,8,20
0.49696280 0.49858520 0.49854212 0.49796757 0.48910500 0.48895200 0.49154600 0.51443400 0.53350800 0.50802600 0.45355200 0.41845700 0.41479400 0.42929000 0.44271800 0.45339900 0.44563358 0.44683004 0.44985281 0.45435836,1,104,12,9,20
0.51645500 0.51386100 0.49951800 0.51141900 0.51141900 0.51141900 0.51111400 0.51111400 0.51157200 0.51126700 0.51157200 0.51126700 0.51126700 0.51141900 0.51111400 0.51111400 0.51111400 0.51111400 0.51141900 0.51096200,0,105,20,0,20
0.50650000 0.50360100 0.50970400 0.50192200 0.50054900 0.50115900 0.49566600 0.49932800 0.49475000 0.50238000 0.50726300 0.48193300 0.50863600 0.51046700 0.50695800 0.47659300 0.50115900 0.50100700 0.50039600 0.49322500,0,106,20,0,20
0.51035100 0.51035100 0.51035100 0.51035100 0.51004600 0.50958800 0.51019900 0.50974100 0.51035100 0.50989400 0.51080900 0.51019900 0.50943600 0.50958800 0.50958800 0.51035100 0.51019900 0.50958800 0.51035100 0.50852000,0,107,20,0,20
0.50798148 0.50105100 0.51051100 0.53142100 0.56148100 0.57857100 0.57903100 0.57155100 0.52669100 0.46977100 0.43376100 0.41118100 0.40721100 0.43346100 0.46123100 0.48610100 0.49724100 0.49724100 0.49956324 0.49808361,1,108,17,0,20
0.50105100 0.51051100 0.53142100 0.56148100 0.57857100 0.57903100 0.57155100 0.52669100 0.46977100 0.43376100 0.41118100 0.40721100 0.43346100 0.46123100 0.48610100 0.49724100 0.49724100 0.49058416 0.49233334 0.49048473,1,108,17,1,20
0.50105100 0.51051100 0.53142100 0.56148100 0.57857100 0.57903100 0.57155100 0.52669100 0.46977100 0.43376100 0.41118100 0.40721100 0.43346100 0.46123100 0.48610100 0.49724100 0.49724100 0.49891626 0.50191764 0.49318417,1,108,17,2,20
0.49847064 0.49914410 0.50626223 0.50105100 0.51051100 0.53142100 0.56148100 0.57857100 0.57903100 0.57155100 0.52669100 0.46977100 0.43376100 0.41118100 0.40721100 0.43346100 0.46123100 0.48610100 0.49724100 0.49724100,1,108,17,3,20
0.50105100 0.51051100 0.53142100 0.56148100 0.57857100 0.57903100 0.57155100 0.52669100 0.46977100 0.43376100 0.41118100 0.40721100 0.43346100 0.46123100 0.48610100 0.49724100 0.49724100 0.49140963 0.50602305 0.48969597,1,108,17,4,20
0.50899009 0.49304211 0.49633190 0.50105100 0.51051100 0.53142100 0.56148100 0.57857100 0.57903100 0.57155100 0.52669100 0.46977100 0.43376100 0.41118100 0.40721100 0.43346100 0.46123100 0.48610100 0.49724100 0.49724100,1,108,17,5,20
0.50105100 0.51051100 0.53142100 0.56148100 0.57857100 0.57903100 0.57155100 0.52669100 0.46977100 0.43376100 0.41118100 0.40721100 0.43346100 0.46123100 0.48610100 0.49724100 0.49724100 0.49086621 0.49552190 0.49624372,1,108,17,6,20
0.49594547 0.50526474 0.50809246 0.50105100 0.51051100 0.53142100 0.56148100 0.57857100 0.57903100 0.57155100 0.52669100 0.46977100 0.43376100 0.41118100 0.40721100 0.43346100 0.46123100 0.48610100 0.49724100 0.49724100,1,108,17,7,20
0.49783069 0.50166930 0.50105100 0.51051100 0.53142100 0.56148100 0.57857100 0.57903100 0.57155100 0.52669100 0.46977100 0.43376100 0.41118100 0.40721100 0.43346100 0.46123100 0.48610100 0.49724100 0.49724100 0.49223689,1,108,17,8,20
0.49593620 0.49426184 0.50986988 0.50105100 0.51051100 0.53142100 0.56148100 0.57857100 0.57903100 0.57155100 0.52669100 0.46977100 0.43376100 0.41118100 0.40721100 0.43346100 0.46123100 0.48610100 0.49724100 0.49724100,1,108,17,9,20
0.51126700 0.51080900 0.51111400 0.51065700 0.51080900 0.51111400 0.51096200 0.51080900 0.51080900 0.51126700 0.51065700 0.51111400 0.51111400 0.51096200 0.51111400 0.51065700 0.51065700 0.51050400 0.51050400 0.51203000,0,109,20,0,20
0.49963300 0.50024400 0.50024400 0.50039600 0.49948100 0.49963300 0.49948100 0.49932800 0.49978600 0.50009100 0.49993800 0.49887000 0.49948100 0.49932800 0.49978600 0.49978600 0.49963300 0.49932800 0.49826000 0.49917600,0,110,20,0,20
0.50424800 0.50958800 0.52194800 0.54224200 0.55963700 0.56741900 0.57001300 0.56024800 0.53156100 0.49478700 0.45755600 0.43405700 0.42078200 0.42108700 0.44641700 0.47357800 0.49082000 0.49875500 0.50428836 0.49910735,1,112,18,0,20
0.50405856 0.50484797 0.50424800 0.50958800 0.52194800 0.54224200 0.55963700 0.56741900 0.57001300 0.56024800 0.53156100 0.49478700 0.45755600 0.43405700 0.42078200 0.42108700 0.44641700 0.47357800 0.49082000 0.49875500,1,112,18,1,20
0.50292814 0.50424800 0.50958800 0.52194800 0.54224200 0.55963700 0.56741900 0.57001300 0.56024800 0.53156100 0.49478700 0.45755600 0.43405700 0.42078200 0.42108700 0.44641700 0.47357800 0.49082000 0.49875500 0.49140844,1,112,18,2,20
0.49669767 0.50424800 0.50958800 0.52194800 0.54224200 0.55963700 0.56741900 0.57001300 0.56024800 0.53156100 0.49478700 0.45755600 0.43405700 0.42078200 0.42108700 0.44641700 0.47357800 0.49082000 0.49875500 0.50777747,1,112,18,3,20
0.50424800 0.50958800 0.52194800 0.54224200 0.55963700 0.56741900 0.57001300 0.56024800 0.53156100 0.49478700 0.45755600 0.43405700 0.42078200 0.42108700 0.44641700 0.47357800 0.49082000 0.49875500 0.50779654 0.49204329,1,112,18,4,20
0.50534558 0.50424800 0.50958800 0.52194800 0.54224200 0.55963700 0.56741900 0.57001300 0.56024800 0.53156100 0.49478700 0.45755600 0.43405700 0.42078200 0.42108700 0.44641700 0.47357800 0.49082000 0.49875500 0.49292390,1,112,18,5,20
0.50424800 0.50958800 0.52194800 0.54224200 0.55963700 0.56741900 0.57001300 0.56024800 0.53156100 0.49478700 0.45755600 0.43405700 0.42078200 0.42108700 0.44641700 0.47357800 0.49082000 0.49875500 0.48937949 0.49115304,1,112,18,6,20
0.50424800 0.50958800 0.52194800 0.54224200 0.55963700 0.56741900 0.57001300 0.56024800 0.53156100 0.49478700 0.45755600 0.43405700 0.42078200 0.42108700 0.44641700 0.47357800 0.49082000 0.49875500 0.50707121 0.49519455,1,112,18,7,20
0.50354234 0.50224011 0.50424800 0.50958800 0.52194800 0.54224200 0.55963700 0.56741900 0.57001300 0.56024800 0.53156100 0.49478700 0.45755600 0.43405700 0.42078200 0.42108700 0.44641700 0.47357800 0.49082000 0.49875500,1,112,18,8,20
0.50489114 0.50424800 0.50958800 0.52194800 0.54224200 0.55963700 0.56741900 0.57001300 0.56024800 0.53156100 0.49478700 0.45755600 0.43405700 0.42078200 0.42108700 0.44641700 0.47357800 0.49082000 0.49875500 0.49251535,1,112,18,9,20
0.51080900 0.51080900 0.51050400 0.51050400 0.51035100 0.50958800 0.51050400 0.51065700 0.51035100 0.51096200 0.51080900 0.51019900 0.51019900 0.51187700 0.50760500 0.51447100 0.51325000 0.50623100 0.51523400 0.51386100,0,113,20,0,20
0.51004600 0.50974100 0.50989400 0.50989400 0.51019900 0.51004600 0.50974100 0.51004600 0.51019900 0.51004600 0.50974100 0.50974100 0.51004600 0.50989400 0.50974100 0.51035100 0.50989400 0.51080900 0.51019900 0.51019900,0,114,20,0,20
0.51019900 0.51019900 0.51019900 0.51050400 0.51035100 0.51050400 0.51065700 0.51004600 0.51019900 0.51019900 0.51050400 0.51019900 0.51080900 0.51096200 0.51050400 0.51080900 0.51050400 0.51050400 0.51050400 0.51080900,0,115,20,0,20
0.51035100 0.51019900 0.51019900 0.51050400 0.51019900 0.51035100 0.51004600 0.51019900 0.51019900 0.51019900 0.51050400 0.51080900 0.51019900 0.51080900 0.51004600 0.51004600 0.51035100 0.51019900 0.51065700 0.51035100,0,116,20,0,20
0.51080900 0.51080900 0.51096200 0.51080900 0.51065700 0.51065700 0.51065700 0.51080900 0.51080900 0.51080900 0.51080900 0.51065700 0.51080900 0.51080900 0.51050400 0.51050400 0.51080900 0.51065700 0.51065700 0.51050400,0,119,20,0,20
0.50974100 0.50958800 0.51019900 0.50989400 0.51019900 0.50913100 0.50974100 0.50928300 0.50989400 0.50989400 0.50958800 0.50958800 0.50958800 0.50989400 0.50913100 0.50974100 0.50974100 0.50958800 0.50928300 0.50974100,0,120,20,0,20
0.50958800 0.50989400 0.50913100 0.50974100 0.50974100 0.50958800 0.50928300 0.50974100 0.50913100 0.50943600 0.50897800 0.50928300 0.50928300 0.50852000 0.50897800 0.50836800 0.50546900 0.50653700 0.50958800 0.50592600,0,121,20,0,20
0.50588900 0.50634700 0.50573700 0.50619500 0.50543200 0.50604200 0.50588900 0.50558400 0.50588900 0.50588900 0.50634700 0.50558400 0.50665200 0.50680500 0.50634700 0.50665200 0.50619500 0.50665200 0.50604200 0.50619500,0,123,20,0,20
0.50024400 0.50024400 0.50039600 0.49948100 0.49963300 0.49948100 0.49932800 0.49978600 0.50009100 0.49993800 0.49887000 0.49948100 0.49932800 0.49978600 0.49978600 0.49963300 0.49932800 0.49826000 0.49917600 0.49841300,0,124,20,0,20
0.50577400 0.50699400 0.49356700 0.49890700 0.50928300 0.51065700 0.50836800 0.50470600 0.50974100 0.51355600 0.50379000 0.51523400 0.50470600 0.50836800 0.50226400 0.51080900 0.51004600 0.51004600 0.51004600 0.51019900,0,125,20,0,20
0.49959879 0.50276900 0.50719400 0.52565700 0.56746600 0.59813600 0.60027200 0.57524800 0.50780400 0.43471400 0.40251800 0.39397300 0.43212000 0.47042000 0.49163000 0.48982388 0.49045107 0.48427142 0.48360116 0.49492372,1,126,14,0,20
0.50589658 0.50604524 0.49311114 0.49928073 0.50276900 0.50719400 0.52565700 0.56746600 0.59813600 0.60027200 0.57524800 0.50780400 0.43471400 0.40251800 0.39397300 0.43212000 0.47042000 0.49163000 0.48568737 0.49709990,1,126,14,1,20
0.49767455 0.50614457 0.49531520 0.49824715 0.49550207 0.49841544 0.50276900 0.50719400 0.52565700 0.56746600 0.59813600 0.60027200 0.57524800 0.50780400 0.43471400 0.40251800 0.39397300 0.43212000 0.47042000 0.49163000,1,126,14,2,20
0.50628308 0.51102099 0.49678650 0.50361524 0.50681913 0.51187762 0.50276900 0.50719400 0.52565700 0.56746600 0.59813600 0.60027200 0.57524800 0.50780400 0.43471400 0.40251800 0.39397300 0.43212000 0.47042000 0.49163000,1,126,14,3,20
0.49784401 0.50529246 0.49915894 0.51234430 0.50276900 0.50719400 0.52565700 0.56746600 0.59813600 0.60027200 0.57524800 0.50780400 0.43471400 0.40251800 0.39397300 0.43212000 0.47042000 0.49163000 0.48965711 0.49527647,1,126,14,4,20
0.49318074 0.50075916 0.51031270 0.50498576 0.50276900 0.50719400 0.52565700 0.56746600 0.59813600 0.60027200 0.57524800 0.50780400 0.43471400 0.40251800 0.39397300 0.43212000 0.47042000 0.49163000 0.49052763 0.50020280,1,126,14,5,20
0.49919362 0.50366490 0.50256436 0.50542769 0.49943285 0.50276900 0.50719400 0.52565700 0.56746600 0.59813600 0.60027200 0.57524800 0.50780400 0.43471400 0.40251800 0.39397300 0.43212000 0.47042000 0.49163000 0.48659974,1,126,14,6,20
0.51106814 0.51129344 0.50967348 0.51238605 0.50769597 0.50276900 0.50719400 0.52565700 0.56746600 0.59813600 0.60027200 0.57524800 0.50780400 0.43471400 0.40251800 0.39397300 0.43212000 0.47042000 0.49163000 0.49683473,1,126,14,7,20
0.50237900 0.50276900 0.50719400 0.52565700 0.56746600 0.59813600 0.60027200 0.57524800 0.50780400 0.43471400 0.40251800 0.39397300 0.43212000 0.47042000 0.49163000 0.49077362 0.48652150 0.49447790 0.48748694 0.48686725,1,126,14,8,20
0.50449775 0.50095868 0.49711499 0.50912513 0.51002034 0.50276900 0.50719400 0.52565700 0.56746600 0.59813600 0.60027200 0.57524800 0.50780400 0.43471400 0.40251800 0.39397300 0.43212000 0.47042000 0.49163000 0.48509524,1,126,14,9,20
0.50497400 0.50512600 0.50436400 0.50497400 0.50482100 0.50436400 0.50512600 0.50482100 0.50512600 0.50436400 0.50512600 0.50512600 0.50497400 0.50604200 0.50558400 0.50558400 0.50512600 0.50558400 0.50512600 0.50573700,0,127,20,0,20
0.49566600 0.49932800 0.49475000 0.50238000 0.50726300 0.48193300 0.50863600 0.51046700 0.50695800 0.47659300 0.50115900 0.50100700 0.50039600 0.49322500 0.50787300 0.50543200 0.50588900 0.50421100 0.50421100 0.50497400,0,128,20,0,20
0.49658200 0.49917600 0.49826000 0.49734400 0.49765000 0.49536100 0.50360100 0.49871800 0.49841300 0.49703900 0.49627600 0.49658200 0.50009100 0.49642900 0.49246200 0.49398800 0.49414000 0.49703900 0.49139400 0.47888100,0,129,20,0,20
0.49871800 0.49749700 0.49902300 0.49856500 0.49932800 0.49795500 0.49581900 0.49856500 0.49932800 0.49841300 0.49948100 0.49932800 0.49841300 0.49749700 0.49658200 0.49917600 0.49826000 0.49734400 0.49765000 0.49536100,0,132,20,0,20
0.50421100 0.50497400 0.50466900 0.50466900 0.50436400 0.50497400 0.50405800 0.50451600 0.50497400 0.50512600 0.50436400 0.50497400 0.50482100 0.50436400 0.50512600 0.50482100 0.50512600 0.50436400 0.50512600 0.50512600,0,133,20,0,20
0.49642900 0.50512600 0.50360100 0.50741500 0.50604200 0.50711000 0.52099600 0.50573700 0.50421100 0.50787300 0.50604200 0.50466900 0.49993800 0.49322500 0.48757900 0.50283800 0.50909400 0.50421100 0.50939900 0.50253200,0,134,20,0,20
0.51325000 0.51004600 0.50409500 0.51050400 0.49417700 0.50913100 0.51615000 0.50852000 0.50806300 0.51203000 0.51096200 0.51096200 0.51080900 0.51096200 0.51080900 0.51080900 0.51080900 0.51080900 0.51065700 0.51080900,0,135,20,0,20
0.51050400 0.51035100 0.51080900 0.51050400 0.51203000 0.51172500 0.51172500 0.51050400 0.51111400 0.51203000 0.51096200 0.51172500 0.51111400 0.51203000 0.51126700 0.51126700 0.51141900 0.51111400 0.51096200 0.51126700,0,136,20,0,20
0.51279300 0.51080900 0.51080900 0.49402400 0.51080900 0.51172500 0.51279300 0.50867300 0.51035100 0.51050400 0.51325000 0.51004600 0.50409500 0.51050400 0.49417700 0.50913100 0.51615000 0.50852000 0.50806300 0.51203000,0,137,20,0,20
0.50421100 0.50360100 0.50451600 0.50482100 0.50466900 0.50466900 0.50421100 0.50451600 0.50405800 0.50512600 0.50512600 0.50497400 0.50497400 0.50527900 0.50512600 0.50482100 0.50543200 0.50466900 0.50558400 0.50497400,0,138,20,0,20
0.50512600 0.50360100 0.50741500 0.50604200 0.50711000 0.52099600 0.50573700 0.50421100 0.50787300 0.50604200 0.50466900 0.49993800 0.49322500 0.48757900 0.50283800 0.50909400 0.50421100 0.50939900 0.50253200 0.50802600,0,139,20,0,20
0.50451600 0.50497400 0.50512600 0.50436400 0.50497400 0.50482100 0.50436400 0.50512600 0.50482100 0.50512600 0.50436400 0.50512600 0.50512600 0.50497400 0.50604200 0.50558400 0.50558400 0.50512600 0.50558400 0.50512600,0,141,20,0,20
0.50852000 0.50806300 0.51203000 0.51096200 0.51096200 0.51080900 0.51096200 0.51080900 0.51080900 0.51080900 0.51080900 0.51065700 0.51080900 0.51050400 0.51080900 0.51065700 0.51080900 0.51080900 0.51080900 0.51065700,0,144,20,0,20
0.50546900 0.50653700 0.50958800 0.50592600 0.51065700 0.50668900 0.50623100 0.49631300 0.50592600 0.51019900 0.50653700 0.51325000 0.51157200 0.50958800 0.50745200 0.50791000 0.51157200 0.50791000 0.51019900 0.51019900,0,147,20,0,20
0.49978600 0.49765000 0.49887000 0.50100700 0.49948100 0.50054900 0.49963300 0.49810700 0.50115900 0.49536100 0.49597100 0.49887000 0.49948100 0.49795500 0.49948100 0.49520800 0.49932800 0.49902300 0.49871800 0.49597100,0,148,20,0,20
0.50070100 0.50115900 0.50054900 0.50085400 0.50009100 0.50131200 0.50070100 0.50100700 0.50115900 0.50085400 0.50146400 0.50024400 0.50100700 0.50039600 0.50070100 0.50177000 0.49948100 0.50070100 0.49917600 0.50009100,0,149,20,0,20
0.49738100 0.49768700 0.49860200 0.50165400 0.50928300 0.52271100 0.54254700 0.55902700 0.56574100 0.56421500 0.55139700 0.52713600 0.49463500 0.46045500 0.43665100 0.42658100 0.42597000 0.43558300 0.45526700 0.47357800,1,150,24,0,20
0.49768700 0.49860200 0.50165400 0.50928300 0.52271100 0.54254700 0.55902700 0.56574100 0.56421500 0.55139700 0.52713600 0.49463500 0.46045500 0.43665100 0.42658100 0.42597000 0.43558300 0.45526700 0.47357800 0.48670000,1,150,24,1,20
0.49860200 0.50165400 0.50928300 0.52271100 0.54254700 0.55902700 0.56574100 0.56421500 0.55139700 0.52713600 0.49463500 0.46045500 0.43665100 0.42658100 0.42597000 0.43558300 0.45526700 0.47357800 0.48670000 0.49356700,1,150,24,2,20
0.50165400 0.50928300 0.52271100 0.54254700 0.55902700 0.56574100 0.56421500 0.55139700 0.52713600 0.49463500 0.46045500 0.43665100 0.42658100 0.42597000 0.43558300 0.45526700 0.47357800 0.48670000 0.49356700 0.49646600,1,150,24,3,20
0.50928300 0.52271100 0.54254700 0.55902700 0.56574100 0.56421500 0.55139700 0.52713600 0.49463500 0.46045500 0.43665100 0.42658100 0.42597000 0.43558300 0.45526700 0.47357800 0.48670000 0.49356700 0.49646600 0.49722900,1,150,24,4,20
0.49887000 0.49826000 0.50054900 0.49780200 0.49627600 0.49780200 0.50085400 0.50054900 0.49780200 0.50222700 0.49581900 0.49475000 0.49627600 0.49536100 0.49887000 0.49993800 0.49627600 0.50054900 0.49291900 0.49780200,0,152,20,0,20
0.50271341 0.50659430 0.50063734 0.49841910 0.51083521 0.50521009 0.50601646 0.50527900 0.51306100 0.51916500 0.54647800 0.56585600 0.55761700 0.52450500 0.47109900 0.42196600 0.45172100 0.48681600 0.50115900 0.51048890,1,153,12,0,20
0.51464849 0.51246694 0.49896522 0.50718436 0.51292180 0.50274177 0.49721689 0.50527900 0.51306100 0.51916500 0.54647800 0.56585600 0.55761700 0.52450500 0.47109900 0.42196600 0.45172100 0.48681600 0.50115900 0.50739267,1,153,12,1,20
0.50658045 0.51502370 0.50744587 0.50376275 0.50527900 0.51306100 0.51916500 0.54647800 0.56585600 0.55761700 0.52450500 0.47109900 0.42196600 0.45172100 0.48681600 0.50115900 0.49855266 0.49950757 0.49350929 0.50706768,1,153,12,2,20
0.51210465 0.50092142 0.50131350 0.51284473 0.50527900 0.51306100 0.51916500 0.54647800 0.56585600 0.55761700 0.52450500 0.47109900 0.42196600 0.45172100 0.48681600 0.50115900 0.49161634 0.50156910 0.50043083 0.50497035,1,153,12,3,20
0.50868116 0.50278765 0.50767836 0.49598379 0.50450546 0.50527900 0.51306100 0.51916500 0.54647800 0.56585600 0.55761700 0.52450500 0.47109900 0.42196600 0.45172100 0.48681600 0.50115900 0.50160505 0.49543228 0.49393477,1,153,12,4,20
0.49898270 0.50527900 0.51306100 0.51916500 0.54647800 0.56585600 0.55761700 0.52450500 0.47109900 0.42196600 0.45172100 0.48681600 0.50115900 0.49803460 0.49307651 0.51012613 0.49925448 0.50735272 0.51066934 0.49275427,1,153,12,5,20
0.51278561 0.50799203 0.50384454 0.50388597 0.49589898 0.50527900 0.51306100 0.51916500 0.54647800 0.56585600 0.55761700 0.52450500 0.47109900 0.42196600 0.45172100 0.48681600 0.50115900 0.50185262 0.51105274 0.51035442,1,153,12,6,20
0.49598994 0.50943840 0.50127244 0.51342388 0.49608524 0.50527900 0.51306100 0.51916500 0.54647800 0.56585600 0.55761700 0.52450500 0.47109900 0.42196600 0.45172100 0.48681600 0.50115900 0.50989669 0.50792416 0.49349136,1,153,12,7,20
0.51204383 0.49832146 0.50527900 0.51306100 0.51916500 0.54647800 0.56585600 0.55761700 0.52450500 0.47109900 0.42196600 0.45172100 0.48681600 0.50115900 0.50185858 0.50949317 0.50251109 0.49909890 0.50005677 0.49240109,1,153,12,8,20
0.50527900 0.51306100 0.51916500 0.54647800 0.56585600 0.55761700 0.52450500 0.47109900 0.42196600 0.45172100 0.48681600 0.50115900 0.51055578 0.49736331 0.49493187 0.49687003 0.51046799 0.49302591 0.50852209 0.50532551,1,153,12,9,20
0.51157200 0.51141900 0.51141900 0.51141900 0.51157200 0.51111400 0.51126700 0.51126700 0.51126700 0.51126700 0.51126700 0.51126700 0.51141900 0.51111400 0.51141900 0.51111400 0.51111400 0.51111400 0.51126700 0.51141900,0,154,20,0,20
0.50645339 0.50297273 0.50564424 0.50000900 0.50901200 0.52900100 0.55387300 0.56440100 0.56424900 0.54105500 0.49802600 0.45347000 0.42997200 0.42219000 0.43561700 0.46277800 0.48292000 0.49299000 0.49650000 0.49507345,1,158,16,0,20
0.50000900 0.50901200 0.52900100 0.55387300 0.56440100 0.56424900 0.54105500 0.49802600 0.45347000 0.42997200 0.42219000 0.43561700 0.46277800 0.48292000 0.49299000 0.49650000 0.49923942 0.50357471 0.49910296 0.49347480,1,158,16,1,20
0.50344615 0.50922091 0.50000900 0.50901200 0.52900100 0.55387300 0.56440100 0.56424900 0.54105500 0.49802600 0.45347000 0.42997200 0.42219000 0.43561700 0.46277800 0.48292000 0.49299000 0.49650000 0.49393632 0.49501212,1,158,16,2,20
0.50625157 0.50012425 0.50474055 0.50000900 0.50901200 0.52900100 0.55387300 0.56440100 0.56424900 0.54105500 0.49802600 0.45347000 0.42997200 0.42219000 0.43561700 0.46277800 0.48292000 0.49299000 0.49650000 0.49569983,1,158,16,3,20
0.50491317 0.49263197 0.50000900 0.50901200 0.52900100 0.55387300 0.56440100 0.56424900 0.54105500 0.49802600 0.45347000 0.42997200 0.42219000 0.43561700 0.46277800 0.48292000 0.49299000 0.49650000 0.49051387 0.49901874,1,158,16,4,20
0.50495449 0.50000900 0.50901200 0.52900100 0.55387300 0.56440100 0.56424900 0.54105500 0.49802600 0.45347000 0.42997200 0.42219000 0.43561700 0.46277800 0.48292000 0.49299000 0.49650000 0.50433850 0.49198357 0.48876898,1,158,16,5,20
0.50000900 0.50901200 0.52900100 0.55387300 0.56440100 0.56424900 0.54105500 0.49802600 0.45347000 0.42997200 0.42219000 0.43561700 0.46277800 0.48292000 0.49299000 0.49650000 0.48963684 0.49049567 0.49235580 0.49708371,1,158,16,6,20
0.50766565 0.50522001 0.50417223 0.49351249 0.50000900 0.50901200 0.52900100 0.55387300 0.56440100 0.56424900 0.54105500 0.49802600 0.45347000 0.42997200 0.42219000 0.43561700 0.46277800 0.48292000 0.49299000 0.49650000,1,158,16,7,20
0.49957709 0.49295739 0.49547751 0.50000900 0.50901200 0.52900100 0.55387300 0.56440100 0.56424900 0.54105500 0.49802600 0.45347000 0.42997200 0.42219000 0.43561700 0.46277800 0.48292000 0.49299000 0.49650000 0.49269350,1,158,16,8,20
0.49255439 0.50000900 0.50901200 0.52900100 0.55387300 0.56440100 0.56424900 0.54105500 0.49802600 0.45347000 0.42997200 0.42219000 0.43561700 0.46277800 0.48292000 0.49299000 0.49650000 0.49749776 0.50057186 0.48795884,1,158,16,9,20
0.51372100 0.51387100 0.51494100 0.51860100 0.52715100 0.54393100 0.57124100 0.59398100 0.59749100 0.59398100 0.58299100 0.55858100 0.52913100 0.49205100 0.46199100 0.44597100 0.43986100 0.44154100 0.45573100 0.47786100,1,161,24,0,20
0.51387100 0.51494100 0.51860100 0.52715100 0.54393100 0.57124100 0.59398100 0.59749100 0.59398100 0.58299100 0.55858100 0.52913100 0.49205100 0.46199100 0.44597100 0.43986100 0.44154100 0.45573100 0.47786100 0.49525100,1,161,24,1,20
0.51494100 0.51860100 0.52715100 0.54393100 0.57124100 0.59398100 0.59749100 0.59398100 0.58299100 0.55858100 0.52913100 0.49205100 0.46199100 0.44597100 0.43986100 0.44154100 0.45573100 0.47786100 0.49525100 0.50639100,1,161,24,2,20
0.51860100 0.52715100 0.54393100 0.57124100 0.59398100 0.59749100 0.59398100 0.58299100 0.55858100 0.52913100 0.49205100 0.46199100 0.44597100 0.43986100 0.44154100 0.45573100 0.47786100 0.49525100 0.50639100 0.51067100,1,161,24,3,20
0.52715100 0.54393100 0.57124100 0.59398100 0.59749100 0.59398100 0.58299100 0.55858100 0.52913100 0.49205100 0.46199100 0.44597100 0.43986100 0.44154100 0.45573100 0.47786100 0.49525100 0.50639100 0.51067100 0.51234100,1,161,24,4,20
0.49550073 0.49326100 0.49387200 0.49677100 0.50653700 0.52683100 0.54941400 0.55750100 0.55170300 0.52500000 0.48517400 0.44550100 0.42413900 0.42398700 0.44718000 0.47098400 0.48441100 0.48975200 0.49188800 0.49955711,1,164,18,0,20
0.50132302 0.49901147 0.49326100 0.49387200 0.49677100 0.50653700 0.52683100 0.54941400 0.55750100 0.55170300 0.52500000 0.48517400 0.44550100 0.42413900 0.42398700 0.44718000 0.47098400 0.48441100 0.48975200 0.49188800,1,164,18,1,20
0.48499698 0.49326100 0.49387200 0.49677100 0.50653700 0.52683100 0.54941400 0.55750100 0.55170300 0.52500000 0.48517400 0.44550100 0.42413900 0.42398700 0.44718000 0.47098400 0.48441100 0.48975200 0.49188800 0.48236122,1,164,18,2,20
0.49281116 0.49326100 0.49387200 0.49677100 0.50653700 0.52683100 0.54941400 0.55750100 0.55170300 0.52500000 0.48517400 0.44550100 0.42413900 0.42398700 0.44718000 0.47098400 0.48441100 0.48975200 0.49188800 0.49177614,1,164,18,3,20
0.49460597 0.49326100 0.49387200 0.49677100 0.50653700 0.52683100 0.54941400 0.55750100 0.55170300 0.52500000 0.48517400 0.44550100 0.42413900 0.42398700 0.44718000 0.47098400 0.48441100 0.48975200 0.49188800 0.49291433,1,164,18,4,20
0.49990252 0.49326100 0.49387200 0.49677100 0.50653700 0.52683100 0.54941400 0.55750100 0.55170300 0.52500000 0.48517400 0.44550100 0.42413900 0.42398700 0.44718000 0.47098400 0.48441100 0.48975200 0.49188800 0.48418813,1,164,18,5,20
0.49904212 0.50012397 0.49326100 0.49387200 0.49677100 0.50653700 0.52683100 0.54941400 0.55750100 0.55170300 0.52500000 0.48517400 0.44550100 0.42413900 0.42398700 0.44718000 0.47098400 0.48441100 0.48975200 0.49188800,1,164,18,6,20
0.49326100 0.49387200 0.49677100 0.50653700 0.52683100 0.54941400 0.55750100 0.55170300 0.52500000 0.48517400 0.44550100 0.42413900 0.42398700 0.44718000 0.47098400 0.48441100 0.48975200 0.49188800 0.50162392 0.49922524,1,164,18,7,20
0.49326100 0.49387200 0.49677100 0.50653700 0.52683100 0.54941400 0.55750100 0.55170300 0.52500000 0.48517400 0.44550100 0.42413900 0.42398700 0.44718000 0.47098400 0.48441100 0.48975200 0.49188800 0.48823520 0.48995314,1,164,18,8,20
0.48868522 0.49535833 0.49326100 0.49387200 0.49677100 0.50653700 0.52683100 0.54941400 0.55750100 0.55170300 0.52500000 0.48517400 0.44550100 0.42413900 0.42398700 0.44718000 0.47098400 0.48441100 0.48975200 0.49188800,1,164,18,9,20
0.51004600 0.51004600 0.51035100 0.51019900 0.51065700 0.51035100 0.51080900 0.51050400 0.51050400 0.51050400 0.51050400 0.51050400 0.51050400 0.51080900 0.51111400 0.51172500 0.51172500 0.50714700 0.51050400 0.51279300,0,167,20,0,20
0.50085400 0.50039600 0.50009100 0.49993800 0.49932800 0.50054900 0.50009100 0.50100700 0.49948100 0.49963300 0.49963300 0.49948100 0.50054900 0.49993800 0.49993800 0.49902300 0.49963300 0.49841300 0.49841300 0.49856500,0,168,20,0,20
0.49948100 0.49887000 0.49963300 0.49978600 0.49917600 0.49993800 0.49963300 0.49978600 0.49887000 0.49993800 0.49963300 0.50039600 0.50009100 0.50024400 0.49963300 0.50009100 0.50070100 0.50024400 0.49993800 0.49948100,0,170,20,0,20
0.50787300 0.50543200 0.50588900 0.50421100 0.50421100 0.50497400 0.50466900 0.50466900 0.50436400 0.50497400 0.50405800 0.50451600 0.50497400 0.50512600 0.50436400 0.50497400 0.50482100 0.50436400 0.50512600 0.50482100,0,171,20,0,20
0.51111400 0.51157200 0.51126700 0.51157200 0.51126700 0.51126700 0.51141900 0.51111400 0.51111400 0.51111400 0.51111400 0.51141900 0.51096200 0.51111400 0.51126700 0.51141900 0.51111400 0.51126700 0.51172500 0.51126700,0,172,20,0,20
0.51234718 0.51672649 0.51135028 0.51555100 0.52272100 0.54912100 0.60771100 0.67912100 0.71803100 0.69759100 0.59764100 0.45390100 0.34557100 0.31200100 0.33733100 0.40431100 0.46519100 0.49724100 0.49067344 0.49117835,1,174,15,0,20
0.50643493 0.52481635 0.51354818 0.52244125 0.51929038 0.51555100 0.52272100 0.54912100 0.60771100 0.67912100 0.71803100 0.69759100 0.59764100 0.45390100 0.34557100 0.31200100 0.33733100 0.40431100 0.46519100 0.49724100,1,174,15,1,20
0.50885837 0.52198483 0.51069888 0.52407378 0.51555100 0.52272100 0.54912100 0.60771100 0.67912100 0.71803100 0.69759100 0.59764100 0.45390100 0.34557100 0.31200100 0.33733100 0.40431100 0.46519100 0.49724100 0.49008183,1,174,15,2,20
0.51921571 0.51555100 0.52272100 0.54912100 0.60771100 0.67912100 0.71803100 0.69759100 0.59764100 0.45390100 0.34557100 0.31200100 0.33733100 0.40431100 0.46519100 0.49724100 0.50349577 0.49197534 0.49278985 0.50648011,1,174,15,3,20
0.51410657 0.51415933 0.51045807 0.51555100 0.52272100 0.54912100 0.60771100 0.67912100 0.71803100 0.69759100 0.59764100 0.45390100 0.34557100 0.31200100 0.33733100 0.40431100 0.46519100 0.49724100 0.50272639 0.50264799,1,174,15,4,20
0.51304167 0.51555100 0.52272100 0.54912100 0.60771100 0.67912100 0.71803100 0.69759100 0.59764100 0.45390100 0.34557100 0.31200100 0.33733100 0.40431100 0.46519100 0.49724100 0.50390653 0.49153416 0.48738182 0.49865649,1,174,15,5,20
0.50603690 0.50952932 0.51555100 0.52272100 0.54912100 0.60771100 0.67912100 0.71803100 0.69759100 0.59764100 0.45390100 0.34557100 0.31200100 0.33733100 0.40431100 0.46519100 0.49724100 0.49761721 0.50340561 0.48906719,1,174,15,6,20
0.51339052 0.52064621 0.51290196 0.50913417 0.50927150 0.51555100 0.52272100 0.54912100 0.60771100 0.67912100 0.71803100 0.69759100 0.59764100 0.45390100 0.34557100 0.31200100 0.33733100 0.40431100 0.46519100 0.49724100,1,174,15,7,20
0.51512654 0.52301235 0.51848454 0.51555100 0.52272100 0.54912100 0.60771100 0.67912100 0.71803100 0.69759100 0.59764100 0.45390100 0.34557100 0.31200100 0.33733100 0.40431100 0.46519100 0.49724100 0.50102803 0.50684744,1,174,15,8,20
0.51373303 0.51355797 0.51555100 0.52272100 0.54912100 0.60771100 0.67912100 0.71803100 0.69759100 0.59764100 0.45390100 0.34557100 0.31200100 0.33733100 0.40431100 0.46519100 0.49724100 0.50566122 0.49218656 0.50181194,1,174,15,9,20
0.51080900 0.51111400 0.51065700 0.51080900 0.51111400 0.51096200 0.51080900 0.51080900 0.51126700 0.51065700 0.51111400 0.51111400 0.51096200 0.51111400 0.51065700 0.51065700 0.51050400 0.51050400 0.51203000 0.51080900,0,175,20,0,20
0.51050400 0.51080900 0.51065700 0.51080900 0.51080900 0.51080900 0.51065700 0.51080900 0.51080900 0.51080900 0.51080900 0.51080900 0.51080900 0.51080900 0.51096200 0.51080900 0.51080900 0.51111400 0.51065700 0.51080900,0,176,20,0,20
0.50409500 0.50806300 0.50836800 0.49158300 0.50897800 0.51004600 0.50974100 0.51080900 0.50668900 0.50958800 0.51004600 0.51019900 0.51004600 0.51035100 0.50989400 0.51035100 0.51035100 0.51050400 0.51050400 0.51035100,0,178,20,0,20
0.51096200 0.50867300 0.50653700 0.51172500 0.51080900 0.51141900 0.51035100 0.51111400 0.51096200 0.51096200 0.51111400 0.51080900 0.51126700 0.51111400 0.51096200 0.51080900 0.51080900 0.51096200 0.51096200 0.51111400,0,179,20,0,20
0.49955200 0.49680500 0.52060900 0.54838000 0.56363800 0.55860300 0.52610200 0.47803700 0.44217900 0.42890300 0.43760100 0.46201500 0.48185100 0.49085400 0.48295691 0.49023025 0.48497480 0.48467661 0.49014380 0.48671963,1,180,14,0,20
0.50546790 0.50769679 0.50560099 0.49487681 0.49503874 0.49955200 0.49680500 0.52060900 0.54838000 0.56363800 0.55860300 0.52610200 0.47803700 0.44217900 0.42890300 0.43760100 0.46201500 0.48185100 0.49085400 0.48603830,1,180,14,1,20
0.50842001 0.49955200 0.49680500 0.52060900 0.54838000 0.56363800 0.55860300 0.52610200 0.47803700 0.44217900 0.42890300 0.43760100 0.46201500 0.48185100 0.49085400 0.48893079 0.48544851 0.49766059 0.48887478 0.48172641,1,180,14,2,20
0.49955200 0.49680500 0.52060900 0.54838000 0.56363800 0.55860300 0.52610200 0.47803700 0.44217900 0.42890300 0.43760100 0.46201500 0.48185100 0.49085400 0.48421651 0.49358806 0.49640861 0.48517844 0.49904921 0.49774553,1,180,14,3,20
0.49411010 0.49955200 0.49680500 0.52060900 0.54838000 0.56363800 0.55860300 0.52610200 0.47803700 0.44217900 0.42890300 0.43760100 0.46201500 0.48185100 0.49085400 0.48202915 0.49806805 0.48704105 0.49318882 0.49595823,1,180,14,4,20
0.49212453 0.50516373 0.50831437 0.50411541 0.49837751 0.49955200 0.49680500 0.52060900 0.54838000 0.56363800 0.55860300 0.52610200 0.47803700 0.44217900 0.42890300 0.43760100 0.46201500 0.48185100 0.49085400 0.49824976,1,180,14,5,20
0.50444303 0.49955200 0.49680500 0.52060900 0.54838000 0.56363800 0.55860300 0.52610200 0.47803700 0.44217900 0.42890300 0.43760100 0.46201500 0.48185100 0.49085400 0.49714686 0.49574983 0.48668871 0.48335069 0.48571650,1,180,14,6,20
0.49960945 0.49965744 0.50120341 0.49955200 0.49680500 0.52060900 0.54838000 0.56363800 0.55860300 0.52610200 0.47803700 0.44217900 0.42890300 0.43760100 0.46201500 0.48185100 0.49085400 0.48879441 0.49648687 0.49896593,1,180,14,7,20
0.50427823 0.50310825 0.50001340 0.49332819 0.50545135 0.49955200 0.49680500 0.52060900 0.54838000 0.56363800 0.55860300 0.52610200 0.47803700 0.44217900 0.42890300 0.43760100 0.46201500 0.48185100 0.49085400 0.49989801,1,180,14,8,20
0.50398475 0.49955200 0.49680500 0.52060900 0.54838000 0.56363800 0.55860300 0.52610200 0.47803700 0.44217900 0.42890300 0.43760100 0.46201500 0.48185100 0.49085400 0.49905833 0.50036057 0.48794914 0.49356790 0.49034219,1,180,14,9,20
0.50592600 0.51340300 0.53735900 0.56116300 0.56528300 0.53735900 0.48822600 0.44748500 0.43909300 0.46732200 0.48990500 0.49875500 0.49065138 0.49700686 0.50624708 0.49444678 0.50449652 0.49641650 0.50833067 0.50640650,1,182,12,0,20
0.50190531 0.51139391 0.50262446 0.50807847 0.50913318 0.51259604 0.49630229 0.50026282 0.50592600 0.51340300 0.53735900 0.56116300 0.56528300 0.53735900 0.48822600 0.44748500 0.43909300 0.46732200 0.48990500 0.49875500,1,182,12,1,20
0.50721152 0.50583706 0.49692477 0.50285555 0.51331455 0.49643266 0.50383018 0.51493448 0.50592600 0.51340300 0.53735900 0.56116300 0.56528300 0.53735900 0.48822600 0.44748500 0.43909300 0.46732200 0.48990500 0.49875500,1,182,12,2,20
0.49683716 0.51097931 0.50102080 0.51334508 0.51090569 0.51373153 0.50592600 0.51340300 0.53735900 0.56116300 0.56528300 0.53735900 0.48822600 0.44748500 0.43909300 0.46732200 0.48990500 0.49875500 0.49308764 0.49937930,1,182,12,3,20
0.50077972 0.50047710 0.49635757 0.50592600 0.51340300 0.53735900 0.56116300 0.56528300 0.53735900 0.48822600 0.44748500 0.43909300 0.46732200 0.48990500 0.49875500 0.50790247 0.50294488 0.50145946 0.50362274 0.49938568,1,182,12,4,20
0.50544302 0.50490468 0.50876807 0.49988595 0.51377916 0.51223495 0.50288161 0.50592600 0.51340300 0.53735900 0.56116300 0.56528300 0.53735900 0.48822600 0.44748500 0.43909300 0.46732200 0.48990500 0.49875500 0.50032327,1,182,12,5,20
0.51548489 0.50592600 0.51340300 0.53735900 0.56116300 0.56528300 0.53735900 0.48822600 0.44748500 0.43909300 0.46732200 0.48990500 0.49875500 0.50679279 0.50717194 0.49540662 0.49215417 0.49300480 0.49057545 0.49117613,1,182,12,6,20
0.49725047 0.50592600 0.51340300 0.53735900 0.56116300 0.56528300 0.53735900 0.48822600 0.44748500 0.43909300 0.46732200 0.48990500 0.49875500 0.50852707 0.49025737 0.49142414 0.50528379 0.50035581 0.50422968 0.50136672,1,182,12,7,20
0.50872817 0.50637375 0.51023142 0.50592600 0.51340300 0.53735900 0.56116300 0.56528300 0.53735900 0.48822600 0.44748500 0.43909300 0.46732200 0.48990500 0.49875500 0.49770547 0.49568394 0.49810966 0.49216573 0.50467167,1,182,12,8,20
0.50108335 0.49891450 0.50079292 0.51284849 0.50248978 0.50969110 0.51313868 0.50592600 0.51340300 0.53735900 0.56116300 0.56528300 0.53735900 0.48822600 0.44748500 0.43909300 0.46732200 0.48990500 0.49875500 0.49033092,1,182,12,9,20
0.51569200 0.51050400 0.51203000 0.51172500 0.51080900 0.53690200 0.59366400 0.65256300 0.64264500 0.60480300 0.56589300 0.47403500 0.42047700 0.38049900 0.36737600 0.41345800 0.47357800 0.49753400 0.50699400 0.51096200,1,183,21,0,20
0.51050400 0.51203000 0.51172500 0.51080900 0.53690200 0.59366400 0.65256300 0.64264500 0.60480300 0.56589300 0.47403500 0.42047700 0.38049900 0.36737600 0.41345800 0.47357800 0.49753400 0.50699400 0.51096200 0.51035100,1,183,21,1,20
0.50536300 0.50597300 0.50658300 0.50841400 0.51497600 0.52626700 0.54778200 0.57265400 0.58318200 0.58287700 0.57631600 0.54976600 0.50902500 0.46340100 0.43547700 0.42647500 0.42479600 0.43364600 0.45668700 0.47835500,1,184,24,0,20
0.50597300 0.50658300 0.50841400 0.51497600 0.52626700 0.54778200 0.57265400 0.58318200 0.58287700 0.57631600 0.54976600 0.50902500 0.46340100 0.43547700 0.42647500 0.42479600 0.43364600 0.45668700 0.47835500 0.49254500,1,184,24,1,20
0.50658300 0.50841400 0.51497600 0.52626700 0.54778200 0.57265400 0.58318200 0.58287700 0.57631600 0.54976600 0.50902500 0.46340100 0.43547700 0.42647500 0.42479600 0.43364600 0.45668700 0.47835500 0.49254500 0.50078500,1,184,24,2,20
0.50841400 0.51497600 0.52626700 0.54778200 0.57265400 0.58318200 0.58287700 0.57631600 0.54976600 0.50902500 0.46340100 0.43547700 0.42647500 0.42479600 0.43364600 0.45668700 0.47835500 0.49254500 0.50078500 0.50414200,1,184,24,3,20
0.51497600 0.52626700 0.54778200 0.57265400 0.58318200 0.58287700 0.57631600 0.54976600 0.50902500 0.46340100 0.43547700 0.42647500 0.42479600 0.43364600 0.45668700 0.47835500 0.49254500 0.50078500 0.50414200 0.50536300,1,184,24,4,20
0.50039600 0.49948100 0.49963300 0.49948100 0.49932800 0.49978600 0.50009100 0.49993800 0.49887000 0.49948100 0.49932800 0.49978600 0.49978600 0.49963300 0.49932800 0.49826000 0.49917600 0.49841300 0.49948100 0.49902300,0,185,20,0,20
0.50711000 0.50650000 0.50680500 0.50634700 0.50711000 0.50711000 0.50741500 0.50680500 0.50726300 0.50665200 0.50726300 0.50741500 0.50680500 0.50695800 0.50604200 0.50695800 0.50604200 0.50680500 0.50680500 0.50650000,0,188,20,0,20
0.50669616 0.51141900 0.51508200 0.52454200 0.53888500 0.55368600 0.56253600 0.56329900 0.55094000 0.52545800 0.49509300 0.46808400 0.45023200 0.44168700 0.45313100 0.47693500 0.49417700 0.50394300 0.50745200 0.50381560,1,189,18,0,20
0.51238625 0.51266231 0.51141900 0.51508200 0.52454200 0.53888500 0.55368600 0.56253600 0.56329900 0.55094000 0.52545800 0.49509300 0.46808400 0.45023200 0.44168700 0.45313100 0.47693500 0.49417700 0.50394300 0.50745200,1,189,18,1,20
0.51141900 0.51508200 0.52454200 0.53888500 0.55368600 0.56253600 0.56329900 0.55094000 0.52545800 0.49509300 0.46808400 0.45023200 0.44168700 0.45313100 0.47693500 0.49417700 0.50394300 0.50745200 0.51022614 0.50559113,1,189,18,2,20
0.51651630 0.51141900 0.51508200 0.52454200 0.53888500 0.55368600 0.56253600 0.56329900 0.55094000 0.52545800 0.49509300 0.46808400 0.45023200 0.44168700 0.45313100 0.47693500 0.49417700 0.50394300 0.50745200 0.50407338,1,189,18,3,20
0.50379325 0.51141900 0.51508200 0.52454200 0.53888500 0.55368600 0.56253600 0.56329900 0.55094000 0.52545800 0.49509300 0.46808400 0.45023200 0.44168700 0.45313100 0.47693500 0.49417700 0.50394300 0.50745200 0.50113346,1,189,18,4,20
0.51141900 0.51508200 0.52454200 0.53888500 0.55368600 0.56253600 0.56329900 0.55094000 0.52545800 0.49509300 0.46808400 0.45023200 0.44168700 0.45313100 0.47693500 0.49417700 0.50394300 0.50745200 0.51456690 0.50636163,1,189,18,5,20
0.51141900 0.51508200 0.52454200 0.53888500 0.55368600 0.56253600 0.56329900 0.55094000 0.52545800 0.49509300 0.46808400 0.45023200 0.44168700 0.45313100 0.47693500 0.49417700 0.50394300 0.50745200 0.51271613 0.50854771,1,189,18,6,20
0.51141900 0.51508200 0.52454200 0.53888500 0.55368600 0.56253600 0.56329900 0.55094000 0.52545800 0.49509300 0.46808400 0.45023200 0.44168700 0.45313100 0.47693500 0.49417700 0.50394300 0.50745200 0.49773239 0.50372449,1,189,18,7,20
0.51141900 0.51508200 0.52454200 0.53888500 0.55368600 0.56253600 0.56329900 0.55094000 0.52545800 0.49509300 0.46808400 0.45023200 0.44168700 0.45313100 0.47693500 0.49417700 0.50394300 0.50745200 0.51061592 0.50288556,1,189,18,8,20
0.51141900 0.51508200 0.52454200 0.53888500 0.55368600 0.56253600 0.56329900 0.55094000 0.52545800 0.49509300 0.46808400 0.45023200 0.44168700 0.45313100 0.47693500 0.49417700 0.50394300 0.50745200 0.49862125 0.49841803,1,189,18,9,20
0.51050400 0.51035100 0.51050400 0.51050400 0.51019900 0.51050400 0.51035100 0.51080900 0.51080900 0.51050400 0.51050400 0.51035100 0.50958800 0.51050400 0.51065700 0.51035100 0.51096200 0.51080900 0.51019900 0.51019900,0,190,20,0,20
0.50421100 0.50070100 0.50711000 0.50253200 0.49810700 0.49780200 0.50527900 0.48590000 0.50299000 0.50360100 0.51351900 0.50177000 0.50115900 0.50329500 0.50207500 0.50405800 0.50436400 0.50390600 0.50375300 0.50375300,0,192,20,0,20
0.51080900 0.51065700 0.51050400 0.51096200 0.51080900 0.51080900 0.51050400 0.51065700 0.51096200 0.51065700 0.51126700 0.51080900 0.51080900 0.51080900 0.51080900 0.51080900 0.51080900 0.51080900 0.51080900 0.51096200,0,193,20,0,20
0.50421100 0.50451600 0.50390600 0.50482100 0.50497400 0.50451600 0.50436400 0.50405800 0.50360100 0.50390600 0.50421100 0.50421100 0.50451600 0.50360100 0.50421100 0.50390600 0.50436400 0.50421100 0.50405800 0.50390600,0,194,20,0,20
0.50363700 0.50394300 0.50577400 0.50928300 0.51676000 0.52866200 0.54727800 0.56772400 0.57916800 0.58084700 0.57642200 0.56665600 0.54682000 0.51859100 0.48502200 0.45419900 0.43543100 0.42658100 0.42352900 0.42459700,1,195,25,0,20
0.50394300 0.50577400 0.50928300 0.51676000 0.52866200 0.54727800 0.56772400 0.57916800 0.58084700 0.57642200 0.56665600 0.54682000 0.51859100 0.48502200 0.45419900 0.43543100 0.42658100 0.42352900 0.42459700 0.43558300,1,195,25,1,20
0.50577400 0.50928300 0.51676000 0.52866200 0.54727800 0.56772400 0.57916800 0.58084700 0.57642200 0.56665600 0.54682000 0.51859100 0.48502200 0.45419900 0.43543100 0.42658100 0.42352900 0.42459700 0.43558300 0.45542000,1,195,25,2,20
0.50928300 0.51676000 0.52866200 0.54727800 0.56772400 0.57916800 0.58084700 0.57642200 0.56665600 0.54682000 0.51859100 0.48502200 0.45419900 0.43543100 0.42658100 0.42352900 0.42459700 0.43558300 0.45542000 0.47373000,1,195,25,3,20
0.51676000 0.52866200 0.54727800 0.56772400 0.57916800 0.58084700 0.57642200 0.56665600 0.54682000 0.51859100 0.48502200 0.45419900 0.43543100 0.42658100 0.42352900 0.42459700 0.43558300 0.45542000 0.47373000 0.48715800,1,195,25,4,20
0.52866200 0.54727800 0.56772400 0.57916800 0.58084700 0.57642200 0.56665600 0.54682000 0.51859100 0.48502200 0.45419900 0.43543100 0.42658100 0.42352900 0.42459700 0.43558300 0.45542000 0.47373000 0.48715800 0.49539800,1,195,25,5,20
0.50089100 0.51431900 0.53720700 0.56314700 0.57337000 0.57123400 0.56375700 0.54804100 0.51889600 0.47952900 0.44122900 0.41879900 0.40689700 0.40292900 0.40292900 0.42063000 0.44504400 0.46442200 0.47754500 0.48425900,1,196,22,0,20
0.51431900 0.53720700 0.56314700 0.57337000 0.57123400 0.56375700 0.54804100 0.51889600 0.47952900 0.44122900 0.41879900 0.40689700 0.40292900 0.40292900 0.42063000 0.44504400 0.46442200 0.47754500 0.48425900 0.48685300,1,196,22,1,20
0.53720700 0.56314700 0.57337000 0.57123400 0.56375700 0.54804100 0.51889600 0.47952900 0.44122900 0.41879900 0.40689700 0.40292900 0.40292900 0.42063000 0.44504400 0.46442200 0.47754500 0.48425900 0.48685300 0.48761600,1,196,22,2,20
0.50927794 0.52645487 0.51205414 0.52142422 0.51806226 0.51921100 0.53493100 0.56712100 0.60374100 0.62526100 0.62572100 0.59428100 0.53325100 0.46199100 0.41057100 0.38661100 0.39821100 0.43147100 0.46764100 0.49251100,1,197,15,0,20
0.51802412 0.51031789 0.52549869 0.51921100 0.53493100 0.56712100 0.60374100 0.62526100 0.62572100 0.59428100 0.53325100 0.46199100 0.41057100 0.38661100 0.39821100 0.43147100 0.46764100 0.49251100 0.50025431 0.48287781,1,197,15,1,20
0.52759946 0.52023891 0.51194287 0.51921100 0.53493100 0.56712100 0.60374100 0.62526100 0.62572100 0.59428100 0.53325100 0.46199100 0.41057100 0.38661100 0.39821100 0.43147100 0.46764100 0.49251100 0.48665584 0.49566280,1,197,15,2,20
0.52388009 0.51921100 0.53493100 0.56712100 0.60374100 0.62526100 0.62572100 0.59428100 0.53325100 0.46199100 0.41057100 0.38661100 0.39821100 0.43147100 0.46764100 0.49251100 0.49446975 0.50143822 0.49239405 0.48857627,1,197,15,3,20
0.51629649 0.51348755 0.50978136 0.51614168 0.52360164 0.51921100 0.53493100 0.56712100 0.60374100 0.62526100 0.62572100 0.59428100 0.53325100 0.46199100 0.41057100 0.38661100 0.39821100 0.43147100 0.46764100 0.49251100,1,197,15,4,20
0.50920970 0.51794783 0.51921100 0.53493100 0.56712100 0.60374100 0.62526100 0.62572100 0.59428100 0.53325100 0.46199100 0.41057100 0.38661100 0.39821100 0.43147100 0.46764100 0.49251100 0.49534805 0.49468601 0.49796110,1,197,15,5,20
0.52360780 0.51096173 0.51869226 0.51921100 0.53493100 0.56712100 0.60374100 0.62526100 0.62572100 0.59428100 0.53325100 0.46199100 0.41057100 0.38661100 0.39821100 0.43147100 0.46764100 0.49251100 0.49454814 0.48749854,1,197,15,6,20
0.50971051 0.51347040 0.51827423 0.51742347 0.51921100 0.53493100 0.56712100 0.60374100 0.62526100 0.62572100 0.59428100 0.53325100 0.46199100 0.41057100 0.38661100 0.39821100 0.43147100 0.46764100 0.49251100 0.48614120,1,197,15,7,20
0.51921100 0.53493100 0.56712100 0.60374100 0.62526100 0.62572100 0.59428100 0.53325100 0.46199100 0.41057100 0.38661100 0.39821100 0.43147100 0.46764100 0.49251100 0.50089721 0.48662743 0.50097378 0.48301265 0.50088295,1,197,15,8,20
0.52859686 0.50907708 0.52467350 0.52897635 0.51921100 0.53493100 0.56712100 0.60374100 0.62526100 0.62572100 0.59428100 0.53325100 0.46199100 0.41057100 0.38661100 0.39821100 0.43147100 0.46764100 0.49251100 0.50050745,1,197,15,9,20
0.50222700 0.50177000 0.50238000 0.50177000 0.50268500 0.50207500 0.50207500 0.50161700 0.50146400 0.50161700 0.50115900 0.50192200 0.50131200 0.50192200 0.50054900 0.50329500 0.50146400 0.50207500 0.49948100 0.50146400,0,198,20,0,20
0.50604200 0.50634700 0.50588900 0.50421100 0.50558400 0.50512600 0.50619500 0.50512600 0.50512600 0.50451600 0.50482100 0.50680500 0.50527900 0.50588900 0.50436400 0.50482100 0.50421100 0.50497400 0.50283800 0.50054900,0,202,20,0,20
0.50913100 0.50974100 0.50974100 0.50958800 0.50928300 0.50974100 0.50913100 0.50943600 0.50897800 0.50928300 0.50928300 0.50852000 0.50897800 0.50836800 0.50546900 0.50653700 0.50958800 0.50592600 0.51065700 0.50668900,0,203,20,0,20
0.50665200 0.50817800 0.50878900 0.48895200 0.50909400 0.49642900 0.50512600 0.50360100 0.50741500 0.50604200 0.50711000 0.52099600 0.50573700 0.50421100 0.50787300 0.50604200 0.50466900 0.49993800 0.49322500 0.48757900,0,204,20,0,20
0.50123071 0.49815444 0.49553100 0.49507300 0.49812500 0.50361800 0.52925300 0.55320900 0.56511100 0.56038100 0.53901800 0.49537800 0.45234900 0.43113900 0.42503500 0.43724200 0.46226700 0.48088300 0.49049600 0.49431000,1,205,18,0,20
0.49553100 0.49507300 0.49812500 0.50361800 0.52925300 0.55320900 0.56511100 0.56038100 0.53901800 0.49537800 0.45234900 0.43113900 0.42503500 0.43724200 0.46226700 0.48088300 0.49049600 0.49431000 0.50279558 0.50382062,1,205,18,1,20
0.49443960 0.49646236 0.49553100 0.49507300 0.49812500 0.50361800 0.52925300 0.55320900 0.56511100 0.56038100 0.53901800 0.49537800 0.45234900 0.43113900 0.42503500 0.43724200 0.46226700 0.48088300 0.49049600 0.49431000,1,205,18,2,20
0.49553100 0.49507300 0.49812500 0.50361800 0.52925300 0.55320900 0.56511100 0.56038100 0.53901800 0.49537800 0.45234900 0.43113900 0.42503500 0.43724200 0.46226700 0.48088300 0.49049600 0.49431000 0.48732527 0.49107298,1,205,18,3,20
0.49553100 0.49507300 0.49812500 0.50361800 0.52925300 0.55320900 0.56511100 0.56038100 0.53901800 0.49537800 0.45234900 0.43113900 0.42503500 0.43724200 0.46226700 0.48088300 0.49049600 0.49431000 0.48474472 0.49337097,1,205,18,4,20
0.50232284 0.49204050 0.49553100 0.49507300 0.49812500 0.50361800 0.52925300 0.55320900 0.56511100 0.56038100 0.53901800 0.49537800 0.45234900 0.43113900 0.42503500 0.43724200 0.46226700 0.48088300 0.49049600 0.49431000,1,205,18,5,20
0.49553100 0.49507300 0.49812500 0.50361800 0.52925300 0.55320900 0.56511100 0.56038100 0.53901800 0.49537800 0.45234900 0.43113900 0.42503500 0.43724200 0.46226700 0.48088300 0.49049600 0.49431000 0.50376211 0.49381325,1,205,18,6,20
0.48821540 0.49553100 0.49507300 0.49812500 0.50361800 0.52925300 0.55320900 0.56511100 0.56038100 0.53901800 0.49537800 0.45234900 0.43113900 0.42503500 0.43724200 0.46226700 0.48088300 0.49049600 0.49431000 0.48544646,1,205,18,7,20
0.49088905 0.49561155 0.49553100 0.49507300 0.49812500 0.50361800 0.52925300 0.55320900 0.56511100 0.56038100 0.53901800 0.49537800 0.45234900 0.43113900 0.42503500 0.43724200 0.46226700 0.48088300 0.49049600 0.49431000,1,205,18,8,20
0.48741820 0.49401775 0.49553100 0.49507300 0.49812500 0.50361800 0.52925300 0.55320900 0.56511100 0.56038100 0.53901800 0.49537800 0.45234900 0.43113900 0.42503500 0.43724200 0.46226700 0.48088300 0.49049600 0.49431000,1,205,18,9,20
0.51080900 0.51080900 0.51096200 0.51080900 0.51096200 0.51111400 0.51065700 0.51080900 0.51080900 0.51080900 0.51080900 0.51080900 0.51111400 0.51065700 0.51080900 0.51035100 0.51035100 0.51035100 0.51019900 0.50821500,0,207,20,0,20
0.51111400 0.51080900 0.51111400 0.51126700 0.51080900 0.51111400 0.51065700 0.51080900 0.51111400 0.51096200 0.51080900 0.51080900 0.51126700 0.51065700 0.51111400 0.51111400 0.51096200 0.51111400 0.51065700 0.51065700,0,210,20,0,20
0.51019900 0.51019900 0.51035100 0.50989400 0.51050400 0.51004600 0.51004600 0.51035100 0.51019900 0.51019900 0.51050400 0.51035100 0.51080900 0.51035100 0.51035100 0.51035100 0.51035100 0.51035100 0.51050400 0.51035100,0,211,20,0,20
0.50384300 0.51071000 0.53146200 0.55099300 0.55663900 0.53100400 0.48370200 0.45104800 0.44372400 0.46401800 0.48705900 0.49804500 0.49809307 0.50743086 0.49324057 0.49813555 0.50520750 0.49701409 0.49365199 0.50512671,1,212,12,0,20
0.50162386 0.50446219 0.51344679 0.49752447 0.49984048 0.49439231 0.50166313 0.49780058 0.50384300 0.51071000 0.53146200 0.55099300 0.55663900 0.53100400 0.48370200 0.45104800 0.44372400 0.46401800 0.48705900 0.49804500,1,212,12,1,20
0.49742044 0.50736613 0.49907615 0.50092510 0.50079698 0.50821135 0.50384300 0.51071000 0.53146200 0.55099300 0.55663900 0.53100400 0.48370200 0.45104800 0.44372400 0.46401800 0.48705900 0.49804500 0.49737780 0.49528182,1,212,12,2,20
0.51094966 0.50529307 0.49807563 0.51190633 0.50067182 0.49455172 0.50384300 0.51071000 0.53146200 0.55099300 0.55663900 0.53100400 0.48370200 0.45104800 0.44372400 0.46401800 0.48705900 0.49804500 0.49793743 0.49055317,1,212,12,3,20
0.50882320 0.49640128 0.51002907 0.51264831 0.50599002 0.50808252 0.50814756 0.51377491 0.50384300 0.51071000 0.53146200 0.55099300 0.55663900 0.53100400 0.48370200 0.45104800 0.44372400 0.46401800 0.48705900 0.49804500,1,212,12,4,20
0.50064941 0.49704831 0.50384300 0.51071000 0.53146200 0.55099300 0.55663900 0.53100400 0.48370200 0.45104800 0.44372400 0.46401800 0.48705900 0.49804500 0.49842685 0.49870740 0.49162844 0.50029834 0.48836549 0.50656492,1,212,12,5,20
0.49456343 0.49594777 0.49860805 0.49928637 0.49442738 0.50384300 0.51071000 0.53146200 0.55099300 0.55663900 0.53100400 0.48370200 0.45104800 0.44372400 0.46401800 0.48705900 0.49804500 0.49364935 0.49192785 0.49562691,1,212,12,6,20
0.50152870 0.50059841 0.50384300 0.51071000 0.53146200 0.55099300 0.55663900 0.53100400 0.48370200 0.45104800 0.44372400 0.46401800 0.48705900 0.49804500 0.49461693 0.48987171 0.48858623 0.49211058 0.50315792 0.50782281,1,212,12,7,20
0.50392804 0.50448437 0.50010613 0.50384300 0.51071000 0.53146200 0.55099300 0.55663900 0.53100400 0.48370200 0.45104800 0.44372400 0.46401800 0.48705900 0.49804500 0.50350237 0.50331943 0.50490353 0.50592416 0.49673712,1,212,12,8,20
0.50922154 0.51001807 0.49998275 0.51249383 0.49566747 0.51380436 0.50928633 0.49564590 0.50384300 0.51071000 0.53146200 0.55099300 0.55663900 0.53100400 0.48370200 0.45104800 0.44372400 0.46401800 0.48705900 0.49804500,1,212,12,9,20
0.49963300 0.49841300 0.49841300 0.49856500 0.49993800 0.49963300 0.49932800 0.49826000 0.49871800 0.49902300 0.49871800 0.49993800 0.49856500 0.49795500 0.49826000 0.49902300 0.49978600 0.49887000 0.49826000 0.50054900,0,215,20,0,20
0.50054900 0.50054900 0.50085400 0.50039600 0.50009100 0.49993800 0.49932800 0.50054900 0.50009100 0.50100700 0.49948100 0.49963300 0.49963300 0.49948100 0.50054900 0.49993800 0.49993800 0.49902300 0.49963300 0.49841300,0,216,20,0,20
0.50024400 0.50039600 0.49948100 0.49963300 0.49948100 0.49932800 0.49978600 0.50009100 0.49993800 0.49887000 0.49948100 0.49932800 0.49978600 0.49978600 0.49963300 0.49932800 0.49826000 0.49917600 0.49841300 0.49948100,0,218,20,0,20
0.50558400 0.50665200 0.50680500 0.50634700 0.50665200 0.50619500 0.50665200 0.50604200 0.50619500 0.50619500 0.50695800 0.50588900 0.50604200 0.50619500 0.50680500 0.50665200 0.50741500 0.50726300 0.50695800 0.50695800,0,219,20,0,20
0.50039600 0.50009100 0.50054900 0.50039600 0.49978600 0.50070100 0.50009100 0.50054900 0.49978600 0.50039600 0.49963300 0.49993800 0.50054900 0.49948100 0.49932800 0.50009100 0.50024400 0.49963300 0.50054900 0.49993800,0,220,20,0,20
0.49887000 0.50009100 0.50024400 0.49963300 0.50009100 0.49963300 0.49993800 0.49948100 0.50054900 0.50054900 0.50054900 0.50039600 0.49993800 0.49978600 0.50009100 0.50100700 0.50054900 0.50039600 0.49993800 0.50085400,0,222,20,0,20
0.49993800 0.49841300 0.50054900 0.50283800 0.49948100 0.50711000 0.51412900 0.50161700 0.49932800 0.50039600 0.49932800 0.50131200 0.50421100 0.49368200 0.49917600 0.49749700 0.47537200 0.50009100 0.50207500 0.50100700,0,223,20,0,20
0.51080900 0.51080900 0.51096200 0.51111400 0.51080900 0.51035100 0.51096200 0.51050400 0.51035100 0.51080900 0.51050400 0.51203000 0.51172500 0.51172500 0.51050400 0.51111400 0.51203000 0.51096200 0.51172500 0.51111400,0,224,20,0,20
0.49948100 0.49795500 0.49948100 0.49520800 0.49932800 0.49902300 0.49871800 0.49597100 0.49429300 0.49993800 0.49765000 0.49566600 0.49215600 0.47140500 0.47155700 0.48895200 0.49978600 0.49673400 0.50222700 0.50573700,0,226,20,0,20
0.50482100 0.50436400 0.50512600 0.50482100 0.50512600 0.50436400 0.50512600 0.50512600 0.50497400 0.50604200 0.50558400 0.50558400 0.50512600 0.50558400 0.50512600 0.50573700 0.50619500 0.50527900 0.50543200 0.50543200,0,227,20,0,20
0.51111400 0.51141900 0.51111400 0.51111400 0.51111400 0.51126700 0.51141900 0.51141900 0.51126700 0.51111400 0.51080900 0.51111400 0.51126700 0.51080900 0.51111400 0.51065700 0.51080900 0.51111400 0.51096200 0.51080900,0,228,20,0,20
0.51080900 0.51050400 0.51080900 0.51080900 0.51080900 0.51080900 0.51080900 0.51096200 0.51050400 0.51080900 0.51050400 0.51050400 0.51080900 0.51203000 0.51019900 0.51019900 0.51080900 0.50913100 0.51080900 0.51035100,0,229,20,0,20
0.50756800 0.50665200 0.50817800 0.50878900 0.48895200 0.50909400 0.49642900 0.50512600 0.50360100 0.50741500 0.50604200 0.50711000 0.52099600 0.50573700 0.50421100 0.50787300 0.50604200 0.50466900 0.49993800 0.49322500,0,230,20,0,20
0.49856500 0.49993800 0.49963300 0.49932800 0.49826000 0.49871800 0.49902300 0.49871800 0.49993800 0.49856500 0.49795500 0.49826000 0.49902300 0.49978600 0.49887000 0.49826000 0.50054900 0.49780200 0.49627600 0.49780200,0,231,20,0,20
0.51004600 0.51035100 0.51019900 0.51019900 0.51050400 0.51035100 0.51080900 0.51035100 0.51035100 0.51035100 0.51035100 0.51035100 0.51050400 0.51035100 0.51080900 0.51080900 0.51080900 0.51065700 0.51080900 0.51050400,0,232,20,0,20
0.50989400 0.51508200 0.50867300 0.50897800 0.51035100 0.51203000 0.50989400 0.51035100 0.50668900 0.51203000 0.50928300 0.50882500 0.50531600 0.50958800 0.50928300 0.50928300 0.51004600 0.50989400 0.50989400 0.50989400,0,233,20,0,20
0.49963300 0.49948100 0.50054900 0.49993800 0.49993800 0.49902300 0.49963300 0.49841300 0.49841300 0.49856500 0.49993800 0.49963300 0.49932800 0.49826000 0.49871800 0.49902300 0.49871800 0.49993800 0.49856500 0.49795500,0,234,20,0,20
0.51050400 0.51111400 0.51111400 0.51096200 0.51080900 0.51080900 0.51111400 0.51080900 0.49478700 0.51111400 0.51111400 0.51050400 0.51080900 0.50897800 0.50730000 0.51584400 0.50943600 0.50882500 0.51080900 0.51035100,0,235,20,0,20
0.51050400 0.51065700 0.51035100 0.51080900 0.51050400 0.51050400 0.51019900 0.51035100 0.51019900 0.51035100 0.51035100 0.51035100 0.51035100 0.51004600 0.50958800 0.51019900 0.50974100 0.51035100 0.50989400 0.51080900,0,236,20,0,20
0.50085400 0.50146400 0.50070100 0.50039600 0.50009100 0.50054900 0.49963300 0.50054900 0.50054900 0.50085400 0.50039600 0.50009100 0.49993800 0.49932800 0.50054900 0.50009100 0.50100700 0.49948100 0.49963300 0.49963300,0,239,20,0,20
0.50024400 0.50085400 0.50054900 0.50100700 0.50070100 0.50054900 0.50070100 0.50009100 0.50085400 0.50070100 0.50100700 0.49993800 0.50054900 0.50009100 0.50085400 0.50131200 0.50039600 0.50054900 0.49963300 0.50009100,0,240,20,0,20
0.50897514 0.50649285 0.49517754 0.49703230 0.50119600 0.50775700 0.52377900 0.55078700 0.57199700 0.57672700 0.56299400 0.52622000 0.47739200 0.43573600 0.41879900 0.42200300 0.44672200 0.47220400 0.48837900 0.49760097,1,241,15,0,20
0.50119600 0.50775700 0.52377900 0.55078700 0.57199700 0.57672700 0.56299400 0.52622000 0.47739200 0.43573600 0.41879900 0.42200300 0.44672200 0.47220400 0.48837900 0.49244592 0.49053807 0.48462099 0.48445488 0.47938352,1,241,15,1,20
0.50119600 0.50775700 0.52377900 0.55078700 0.57199700 0.57672700 0.56299400 0.52622000 0.47739200 0.43573600 0.41879900 0.42200300 0.44672200 0.47220400 0.48837900 0.47945485 0.47870631 0.49286222 0.49714782 0.49338983,1,241,15,2,20
0.50062745 0.50091624 0.49991567 0.49768048 0.50119600 0.50775700 0.52377900 0.55078700 0.57199700 0.57672700 0.56299400 0.52622000 0.47739200 0.43573600 0.41879900 0.42200300 0.44672200 0.47220400 0.48837900 0.48880319,1,241,15,3,20
0.50316405 0.50917745 0.51111987 0.50119600 0.50775700 0.52377900 0.55078700 0.57199700 0.57672700 0.56299400 0.52622000 0.47739200 0.43573600 0.41879900 0.42200300 0.44672200 0.47220400 0.48837900 0.48014968 0.48612627,1,241,15,4,20
0.49479485 0.49823133 0.50119600 0.50775700 0.52377900 0.55078700 0.57199700 0.57672700 0.56299400 0.52622000 0.47739200 0.43573600 0.41879900 0.42200300 0.44672200 0.47220400 0.48837900 0.48422725 0.48202103 0.49353777,1,241,15,5,20
0.50960097 0.49182549 0.49251484 0.49925684 0.50119600 0.50775700 0.52377900 0.55078700 0.57199700 0.57672700 0.56299400 0.52622000 0.47739200 0.43573600 0.41879900 0.42200300 0.44672200 0.47220400 0.48837900 0.48017965,1,241,15,6,20
0.49643924 0.51093985 0.50119600 0.50775700 0.52377900 0.55078700 0.57199700 0.57672700 0.56299400 0.52622000 0.47739200 0.43573600 0.41879900 0.42200300 0.44672200 0.47220400 0.48837900 0.48269348 0.48248168 0.48981758,1,241,15,7,20
0.50280861 0.49872481 0.50119600 0.50775700 0.52377900 0.55078700 0.57199700 0.57672700 0.56299400 0.52622000 0.47739200 0.43573600 0.41879900 0.42200300 0.44672200 0.47220400 0.48837900 0.49476235 0.48131861 0.48698014,1,241,15,8,20
0.50500032 0.50857835 0.50119600 0.50775700 0.52377900 0.55078700 0.57199700 0.57672700 0.56299400 0.52622000 0.47739200 0.43573600 0.41879900 0.42200300 0.44672200 0.47220400 0.48837900 0.48583106 0.48970242 0.47996208,1,241,15,9,20
0.51176630 0.52074100 0.52608100 0.54393100 0.58314100 0.61107100 0.61183100 0.58482100 0.52303100 0.45726100 0.43056100 0.42552100 0.46107100 0.49327100 0.51112100 0.51753100 0.52224842 0.51314358 0.52216280 0.50855491,1,243,15,0,20
0.52829274 0.52074100 0.52608100 0.54393100 0.58314100 0.61107100 0.61183100 0.58482100 0.52303100 0.45726100 0.43056100 0.42552100 0.46107100 0.49327100 0.51112100 0.51753100 0.52447689 0.50902132 0.50767217 0.50834563,1,243,15,1,20
0.51521497 0.52174652 0.51920469 0.52074100 0.52608100 0.54393100 0.58314100 0.61107100 0.61183100 0.58482100 0.52303100 0.45726100 0.43056100 0.42552100 0.46107100 0.49327100 0.51112100 0.51753100 0.52364874 0.51730118,1,243,15,2,20
0.52075477 0.53092861 0.51345332 0.52762944 0.51140411 0.52074100 0.52608100 0.54393100 0.58314100 0.61107100 0.61183100 0.58482100 0.52303100 0.45726100 0.43056100 0.42552100 0.46107100 0.49327100 0.51112100 0.51753100,1,243,15,3,20
0.52878822 0.52074100 0.52608100 0.54393100 0.58314100 0.61107100 0.61183100 0.58482100 0.52303100 0.45726100 0.43056100 0.42552100 0.46107100 0.49327100 0.51112100 0.51753100 0.52095113 0.52136517 0.51263137 0.51584540,1,243,15,4,20
0.51796193 0.52118765 0.52074100 0.52608100 0.54393100 0.58314100 0.61107100 0.61183100 0.58482100 0.52303100 0.45726100 0.43056100 0.42552100 0.46107100 0.49327100 0.51112100 0.51753100 0.51674907 0.51394758 0.51350421,1,243,15,5,20
0.51792998 0.51344941 0.52849180 0.52286811 0.52074100 0.52608100 0.54393100 0.58314100 0.61107100 0.61183100 0.58482100 0.52303100 0.45726100 0.43056100 0.42552100 0.46107100 0.49327100 0.51112100 0.51753100 0.50994992,1,243,15,6,20
0.52477902 0.52074100 0.52608100 0.54393100 0.58314100 0.61107100 0.61183100 0.58482100 0.52303100 0.45726100 0.43056100 0.42552100 0.46107100 0.49327100 0.51112100 0.51753100 0.52472813 0.51209766 0.51029800 0.50735877,1,243,15,7,20
0.52074100 0.52608100 0.54393100 0.58314100 0.61107100 0.61183100 0.58482100 0.52303100 0.45726100 0.43056100 0.42552100 0.46107100 0.49327100 0.51112100 0.51753100 0.52295993 0.52761636 0.50810946 0.52266638 0.50866802,1,243,15,8,20
0.52074100 0.52608100 0.54393100 0.58314100 0.61107100 0.61183100 0.58482100 0.52303100 0.45726100 0.43056100 0.42552100 0.46107100 0.49327100 0.51112100 0.51753100 0.51943826 0.52283208 0.51461636 0.50740674 0.51950154,1,243,15,9,20
0.49997500 0.51019900 0.53324000 0.53446000 0.56604600 0.56696100 0.54773500 0.51203000 0.46610100 0.43298900 0.42612300 0.41742500 0.44992700 0.47647700 0.49219300 0.49768700 0.49286177 0.49150555 0.49020031 0.49878700,1,244,16,0,20
0.50190381 0.50582012 0.50503621 0.50782544 0.49997500 0.51019900 0.53324000 0.53446000 0.56604600 0.56696100 0.54773500 0.51203000 0.46610100 0.43298900 0.42612300 0.41742500 0.44992700 0.47647700 0.49219300 0.49768700,1,244,16,1,20
0.49492059 0.49997500 0.51019900 0.53324000 0.53446000 0.56604600 0.56696100 0.54773500 0.51203000 0.46610100 0.43298900 0.42612300 0.41742500 0.44992700 0.47647700 0.49219300 0.49768700 0.49879938 0.49365398 0.49429846,1,244,16,2,20
0.50861346 0.50361274 0.50946633 0.49831333 0.49997500 0.51019900 0.53324000 0.53446000 0.56604600 0.56696100 0.54773500 0.51203000 0.46610100 0.43298900 0.42612300 0.41742500 0.44992700 0.47647700 0.49219300 0.49768700,1,244,16,3,20
0.49997500 0.51019900 0.53324000 0.53446000 0.56604600 0.56696100 0.54773500 0.51203000 0.46610100 0.43298900 0.42612300 0.41742500 0.44992700 0.47647700 0.49219300 0.49768700 0.49743050 0.48986907 0.49244540 0.49823717,1,244,16,4,20
0.49132292 0.50860381 0.49997500 0.51019900 0.53324000 0.53446000 0.56604600 0.56696100 0.54773500 0.51203000 0.46610100 0.43298900 0.42612300 0.41742500 0.44992700 0.47647700 0.49219300 0.49768700 0.49019868 0.49167456,1,244,16,5,20
0.49191409 0.50798016 0.50448879 0.49997500 0.51019900 0.53324000 0.53446000 0.56604600 0.56696100 0.54773500 0.51203000 0.46610100 0.43298900 0.42612300 0.41742500 0.44992700 0.47647700 0.49219300 0.49768700 0.48909933,1,244,16,6,20
0.50381175 0.50260744 0.50512173 0.49997500 0.51019900 0.53324000 0.53446000 0.56604600 0.56696100 0.54773500 0.51203000 0.46610100 0.43298900 0.42612300 0.41742500 0.44992700 0.47647700 0.49219300 0.49768700 0.50422059,1,244,16,7,20
0.50169844 0.49642444 0.50392028 0.50911397 0.49997500 0.51019900 0.53324000 0.53446000 0.56604600 0.56696100 0.54773500 0.51203000 0.46610100 0.43298900 0.42612300 0.41742500 0.44992700 0.47647700 0.49219300 0.49768700,1,244,16,8,20
0.50172535 0.50326173 0.49871762 0.49997500 0.51019900 0.53324000 0.53446000 0.56604600 0.56696100 0.54773500 0.51203000 0.46610100 0.43298900 0.42612300 0.41742500 0.44992700 0.47647700 0.49219300 0.49768700 0.50278572,1,244,16,9,20
0.50989400 0.51050400 0.51019900 0.50806300 0.50684200 0.51126700 0.50501100 0.51370800 0.51157200 0.48563200 0.50989400 0.51508200 0.50867300 0.50897800 0.51035100 0.51203000 0.50989400 0.51035100 0.50668900 0.51203000,0,246,20,0,20
0.50283800 0.49948100 0.50711000 0.51412900 0.50161700 0.49932800 0.50039600 0.49932800 0.50131200 0.50421100 0.49368200 0.49917600 0.49749700 0.47537200 0.50009100 0.50207500 0.50100700 0.50344800 0.50344800 0.50299000,0,247,20,0,20
0.50085400 0.50085400 0.50085400 0.50054900 0.50177000 0.50360100 0.49627600 0.49627600 0.50421100 0.49719200 0.49765000 0.49307200 0.51077200 0.50054900 0.50405800 0.49887000 0.50543200 0.49948100 0.49871800 0.49932800,0,248,20,0,20
0.50588900 0.50573700 0.50543200 0.50512600 0.50573700 0.50497400 0.50604200 0.50543200 0.50573700 0.50451600 0.50512600 0.50497400 0.50543200 0.50558400 0.50512600 0.50466900 0.50573700 0.50436400 0.50390600 0.50573700,0,249,20,0,20
0.51096200 0.51096200 0.51111400 0.51080900 0.51111400 0.51111400 0.51111400 0.51096200 0.51126700 0.51111400 0.51111400 0.51141900 0.51080900 0.51080900 0.51141900 0.51096200 0.51141900 0.51141900 0.51187700 0.51141900,0,250,20,0,20
0.49258141 0.49342066 0.49936500 0.51492900 0.54376800 0.56314700 0.56146800 0.54331000 0.49921200 0.44702700 0.41559400 0.41330500 0.42413900 0.45404600 0.46930500 0.49387200 0.48944700 0.49021911 0.48908237 0.49084818,1,251,15,0,20
0.49035793 0.49745296 0.50102246 0.50106666 0.50250768 0.49936500 0.51492900 0.54376800 0.56314700 0.56146800 0.54331000 0.49921200 0.44702700 0.41559400 0.41330500 0.42413900 0.45404600 0.46930500 0.49387200 0.48944700,1,251,15,1,20
0.50219235 0.50516249 0.50185704 0.49936500 0.51492900 0.54376800 0.56314700 0.56146800 0.54331000 0.49921200 0.44702700 0.41559400 0.41330500 0.42413900 0.45404600 0.46930500 0.49387200 0.48944700 0.49018132 0.49152610,1,251,15,2,20
0.49139900 0.49483389 0.49991230 0.50681527 0.49936500 0.51492900 0.54376800 0.56314700 0.56146800 0.54331000 0.49921200 0.44702700 0.41559400 0.41330500 0.42413900 0.45404600 0.46930500 0.49387200 0.48944700 0.49295245,1,251,15,3,20
0.50120816 0.49936500 0.51492900 0.54376800 0.56314700 0.56146800 0.54331000 0.49921200 0.44702700 0.41559400 0.41330500 0.42413900 0.45404600 0.46930500 0.49387200 0.48944700 0.48399922 0.49402855 0.49585760 0.49127668,1,251,15,4,20
0.49936500 0.51492900 0.54376800 0.56314700 0.56146800 0.54331000 0.49921200 0.44702700 0.41559400 0.41330500 0.42413900 0.45404600 0.46930500 0.49387200 0.48944700 0.49123569 0.48628696 0.48839469 0.49657547 0.49381914,1,251,15,5,20
0.49673299 0.49038402 0.49936500 0.51492900 0.54376800 0.56314700 0.56146800 0.54331000 0.49921200 0.44702700 0.41559400 0.41330500 0.42413900 0.45404600 0.46930500 0.49387200 0.48944700 0.48245784 0.48343708 0.48696812,1,251,15,6,20
0.50823659 0.49946794 0.49406854 0.49936500 0.51492900 0.54376800 0.56314700 0.56146800 0.54331000 0.49921200 0.44702700 0.41559400 0.41330500 0.42413900 0.45404600 0.46930500 0.49387200 0.48944700 0.48172842 0.48628136,1,251,15,7,20
0.49936500 0.51492900 0.54376800 0.56314700 0.56146800 0.54331000 0.49921200 0.44702700 0.41559400 0.41330500 0.42413900 0.45404600 0.46930500 0.49387200 0.48944700 0.48716310 0.49478209 0.49537332 0.48182770 0.49157433,1,251,15,8,20
0.50853526 0.49741025 0.49039529 0.50782030 0.49936500 0.51492900 0.54376800 0.56314700 0.56146800 0.54331000 0.49921200 0.44702700 0.41559400 0.41330500 0.42413900 0.45404600 0.46930500 0.49387200 0.48944700 0.49695837,1,251,15,9,20
0.51096200 0.51126700 0.51248800 0.51355600 0.50501100 0.51187700 0.51218200 0.51996400 0.51187700 0.51660700 0.51370800 0.51416600 0.50485800 0.51325000 0.51004600 0.51126700 0.50592600 0.50241700 0.50409500 0.50684200,0,252,20,0,20
0.49398800 0.49902300 0.49444500 0.50421100 0.50024400 0.49688700 0.49444500 0.49810700 0.49810700 0.49780200 0.49841300 0.49871800 0.49871800 0.49826000 0.49810700 0.49841300 0.49810700 0.49902300 0.49856500 0.49917600,0,254,20,0,20
0.51065700 0.51645500 0.51386100 0.49951800 0.51141900 0.51141900 0.51141900 0.51111400 0.51111400 0.51157200 0.51126700 0.51157200 0.51126700 0.51126700 0.51141900 0.51111400 0.51111400 0.51111400 0.51111400 0.51141900,0,255,20,0,20
0.51218931 0.51112100 0.51143100 0.51494100 0.53004100 0.57124100 0.63289100 0.66692100 0.66493100 0.60863100 0.51082100 0.40965100 0.35609100 0.34679100 0.39012100 0.44749100 0.48549100 0.50197100 0.50807100 0.50221276,1,256,18,0,20
0.51765212 0.51112100 0.51143100 0.51494100 0.53004100 0.57124100 0.63289100 0.66692100 0.66493100 0.60863100 0.51082100 0.40965100 0.35609100 0.34679100 0.39012100 0.44749100 0.48549100 0.50197100 0.50807100 0.50804255,1,256,18,1,20
0.51112100 0.51143100 0.51494100 0.53004100 0.57124100 0.63289100 0.66692100 0.66493100 0.60863100 0.51082100 0.40965100 0.35609100 0.34679100 0.39012100 0.44749100 0.48549100 0.50197100 0.50807100 0.51179038 0.51722636,1,256,18,2,20
0.51112100 0.51143100 0.51494100 0.53004100 0.57124100 0.63289100 0.66692100 0.66493100 0.60863100 0.51082100 0.40965100 0.35609100 0.34679100 0.39012100 0.44749100 0.48549100 0.50197100 0.50807100 0.51476027 0.50354303,1,256,18,3,20
0.52012391 0.52005668 0.51112100 0.51143100 0.51494100 0.53004100 0.57124100 0.63289100 0.66692100 0.66493100 0.60863100 0.51082100 0.40965100 0.35609100 0.34679100 0.39012100 0.44749100 0.48549100 0.50197100 0.50807100,1,256,18,4,20
0.51112100 0.51143100 0.51494100 0.53004100 0.57124100 0.63289100 0.66692100 0.66493100 0.60863100 0.51082100 0.40965100 0.35609100 0.34679100 0.39012100 0.44749100 0.48549100 0.50197100 0.50807100 0.50872977 0.51096329,1,256,18,5,20
0.50948062 0.50334068 0.51112100 0.51143100 0.51494100 0.53004100 0.57124100 0.63289100 0.66692100 0.66493100 0.60863100 0.51082100 0.40965100 0.35609100 0.34679100 0.39012100 0.44749100 0.48549100 0.50197100 0.50807100,1,256,18,6,20
0.50287668 0.51112100 0.51143100 0.51494100 0.53004100 0.57124100 0.63289100 0.66692100 0.66493100 0.60863100 0.51082100 0.40965100 0.35609100 0.34679100 0.39012100 0.44749100 0.48549100 0.50197100 0.50807100 0.50263936,1,256,18,7,20
0.51112100 0.51143100 0.51494100 0.53004100 0.57124100 0.63289100 0.66692100 0.66493100 0.60863100 0.51082100 0.40965100 0.35609100 0.34679100 0.39012100 0.44749100 0.48549100 0.50197100 0.50807100 0.50087331 0.50251674,1,256,18,8,20
0.51211491 0.50529690 0.51112100 0.51143100 0.51494100 0.53004100 0.57124100 0.63289100 0.66692100 0.66493100 0.60863100 0.51082100 0.40965100 0.35609100 0.34679100 0.39012100 0.44749100 0.48549100 0.50197100 0.50807100,1,256,18,9,20
0.51050400 0.51019900 0.51019900 0.51035100 0.51035100 0.51035100 0.50989400 0.51004600 0.50989400 0.51004600 0.51035100 0.51004600 0.51004600 0.50989400 0.50974100 0.50943600 0.50974100 0.50989400 0.50974100 0.50958800,0,258,20,0,20
0.49810700 0.49780200 0.49841300 0.49871800 0.49871800 0.49826000 0.49810700 0.49841300 0.49810700 0.49902300 0.49856500 0.49917600 0.49841300 0.49871800 0.49826000 0.49917600 0.49978600 0.49871800 0.49948100 0.49871800,0,261,20,0,20
0.50360100 0.50375300 0.50360100 0.50421100 0.50360100 0.50360100 0.50405800 0.50375300 0.50421100 0.50329500 0.50405800 0.50344800 0.50390600 0.50466900 0.50405800 0.50405800 0.50314300 0.50390600 0.50314300 0.50390600,0,262,20,0,20
0.49948100 0.50070100 0.49917600 0.50009100 0.50085400 0.50222700 0.50085400 0.50177000 0.50054900 0.50115900 0.50024400 0.50024400 0.50177000 0.50085400 0.50070100 0.50024400 0.49887000 0.50466900 0.49642900 0.48178100,0,263,20,0,20
