mean,median,std,min,max,range,argmax,argmin,max_abs_diff,mean_abs_diff,sum_abs_diff,energy,number_of_local_maxima,number_of_local_minima,split,label
0.50075495,0.500854,0.00037776123,0.499938,0.501464,0.0015259981,2,10,0.0010690093,0.00047389456,0.009003997,5.015111,6,8,train,0
0.510468,0.511267,0.035411045,0.444128,0.579168,0.13504001,5,10,0.053710967,0.016404519,0.31168586,5.23663,3,3,train,1
0.510226,0.5099974,0.03536153,0.444128,0.579168,0.13504001,9,14,0.053710967,0.015398374,0.2925691,5.231621,3,2,train,1
0.51017296,0.51022,0.035328068,0.444128,0.579168,0.13504001,6,11,0.053710967,0.015615319,0.29669106,5.2304916,2,3,train,1
0.51045173,0.511267,0.035382442,0.444128,0.579168,0.13504001,10,15,0.053710967,0.015883839,0.30179292,5.236257,3,3,train,1
0.5097679,0.50966454,0.035428505,0.444128,0.579168,0.13504001,5,10,0.053710967,0.0160402,0.3047638,5.2223687,3,2,train,1
0.5106965,0.511267,0.035399374,0.444128,0.579168,0.13504001,10,15,0.053710967,0.015877215,0.3016671,5.2412796,2,2,train,1
0.5092835,0.50935364,0.035333928,0.444128,0.579168,0.13504001,10,15,0.053710967,0.015423919,0.29305446,5.2123637,2,3,train,1
0.51052195,0.511267,0.035317164,0.444128,0.579168,0.13504001,7,12,0.053710967,0.0153576955,0.2917962,5.2375975,2,2,train,1
0.510029,0.50966454,0.035372127,0.444128,0.579168,0.13504001,9,14,0.053710967,0.015687073,0.2980544,5.2276163,3,3,train,1
0.5100898,0.511267,0.03539611,0.444128,0.579168,0.13504001,9,14,0.053710967,0.015699282,0.29828638,5.228891,2,3,train,1
0.50791395,0.50428843,0.053068727,0.426275,0.591986,0.16571099,5,12,0.041046023,0.017832533,0.33881813,5.215856,2,1,train,1
0.50769633,0.50211334,0.05308188,0.426275,0.591986,0.16571099,6,13,0.041046023,0.017861137,0.3393616,5.211466,1,2,train,1
0.5075643,0.50142455,0.05309813,0.426275,0.591986,0.16571099,5,12,0.041046023,0.018200561,0.34581065,5.2088175,2,1,train,1
0.5081266,0.50470555,0.05307224,0.426275,0.591986,0.16571099,5,12,0.041046023,0.017968591,0.34140325,5.2201853,1,1,train,1
0.5076929,0.50207824,0.05308223,0.426275,0.591986,0.16571099,6,13,0.041046023,0.017857442,0.3392914,5.2113953,1,2,train,1
0.5082246,0.50470555,0.053079322,0.426275,0.591986,0.16571099,5,12,0.041046023,0.018071817,0.34336454,5.2221932,1,1,train,1
0.5076812,0.5019614,0.05308343,0.426275,0.591986,0.16571099,6,13,0.041046023,0.017845144,0.33905774,5.2111607,1,2,train,1
0.5076868,0.50201786,0.053082846,0.426275,0.591986,0.16571099,6,13,0.041046023,0.017851083,0.33917058,5.2112737,1,2,train,1
0.5071573,0.50142455,0.05318735,0.426275,0.591986,0.16571099,6,13,0.041046023,0.018283537,0.3473872,5.200749,1,1,train,1
0.50789136,0.50406307,0.053069305,0.426275,0.591986,0.16571099,5,12,0.041046023,0.017856255,0.33926886,5.2153993,2,1,train,1
0.49232394,0.501098,0.11340809,0.311889,0.66101,0.34912103,7,14,0.090333015,0.035898272,0.68206716,5.1048827,1,1,train,1
0.49190426,0.49690148,0.11339715,0.311889,0.66101,0.34912103,6,13,0.090333015,0.036115114,0.68618715,5.096573,1,1,train,1
0.49899396,0.49871904,0.03257593,0.432738,0.562438,0.1297,12,16,0.051726997,0.015144483,0.28774518,5.0011225,3,3,train,1
0.49516654,0.49263662,0.033076752,0.432738,0.562438,0.1297,5,9,0.051726997,0.015719246,0.29866567,4.9256787,3,4,train,1
0.49772686,0.4971153,0.032633714,0.432738,0.562438,0.1297,10,14,0.051726997,0.015330413,0.29127786,4.97594,4,4,train,1
0.4976216,0.4959265,0.032716393,0.432738,0.562438,0.1297,8,12,0.051726997,0.016536355,0.31419075,4.9739513,3,4,train,1
0.49549514,0.491027,0.03302314,0.432738,0.562438,0.1297,6,10,0.051726997,0.015438683,0.293335,4.9321203,3,4,train,1
0.49978763,0.5025029,0.032668047,0.432738,0.562438,0.1297,11,15,0.051726997,0.015045124,0.28585735,5.0170956,3,4,train,1
0.49312514,0.48892236,0.03311615,0.432738,0.562438,0.1297,4,8,0.051726997,0.015550845,0.29546607,4.8853827,4,4,train,1
0.49794206,0.49871257,0.032878984,0.432738,0.562438,0.1297,9,13,0.051726997,0.01673582,0.3179806,4.980548,5,4,train,1
0.4969166,0.49279106,0.032876395,0.432738,0.562438,0.1297,8,12,0.051726997,0.014846655,0.28208643,4.960139,3,3,train,1
0.49856704,0.50109506,0.03286416,0.432738,0.562438,0.1297,11,15,0.051726997,0.016173227,0.3072913,4.992984,4,4,train,1
0.5008006,0.500854,0.00034218942,0.500091,0.501464,0.001372993,8,2,0.0012210011,0.0004739479,0.00900501,5.016027,8,7,train,0
0.49923754,0.50042385,0.03046308,0.43991,0.561217,0.121307015,9,13,0.04608202,0.015051303,0.28597477,5.003323,3,2,train,1
0.5007998,0.5031744,0.030313177,0.43991,0.561217,0.121307015,10,14,0.04608202,0.014907782,0.28324786,5.0343857,4,5,train,1
0.50255835,0.5071061,0.030215941,0.43991,0.561217,0.121307015,12,16,0.04608202,0.014854014,0.28222626,5.0695586,3,4,train,1
0.49793753,0.49473467,0.030496318,0.43991,0.561217,0.121307015,6,10,0.04608202,0.014533706,0.27614042,4.977435,3,4,train,1
0.49814048,0.49656475,0.030431816,0.43991,0.561217,0.121307015,7,11,0.04608202,0.015130756,0.28748438,4.9814005,2,3,train,1
0.4967069,0.49580356,0.030522993,0.43991,0.561217,0.121307015,6,10,0.04608202,0.014103997,0.26797593,4.9529877,2,2,train,1
0.49784678,0.4944465,0.030232051,0.43991,0.561217,0.121307015,6,10,0.04608202,0.014499335,0.27548736,4.975309,3,3,train,1
0.49669152,0.49124894,0.030615507,0.43991,0.561217,0.121307015,5,9,0.04608202,0.014574945,0.27692395,4.952796,3,4,train,1
0.49667272,0.49150658,0.030800804,0.43991,0.561217,0.121307015,6,10,0.04608202,0.01519653,0.28873408,4.952649,4,4,train,1
0.50213075,0.50557244,0.030161735,0.43991,0.561217,0.121307015,12,16,0.04608202,0.0149851665,0.28471816,5.060901,3,4,train,1
0.5006785,0.500625,0.00038387717,0.499938,0.501464,0.0015259981,16,6,0.0010690093,0.00047389456,0.009003997,5.013582,6,6,train,0
0.50577486,0.505813,0.0004698645,0.504669,0.506652,0.001982987,19,0,0.001067996,0.0004898404,0.009306967,5.1161695,8,6,train,0
0.49970955,0.499633,0.00036912685,0.49887,0.500396,0.0015260279,5,13,0.0010680258,0.00035342888,0.0067151487,4.9941955,7,5,train,0
0.49691886,0.49228263,0.030453235,0.442191,0.560599,0.118408024,6,10,0.04577604,0.01352646,0.25700274,4.957116,2,2,train,1
0.5002625,0.5004761,0.030058427,0.442191,0.560599,0.118408024,11,15,0.04577604,0.014017889,0.2663399,5.023321,3,3,train,1
0.49965858,0.4990378,0.03017031,0.442191,0.560599,0.118408024,12,16,0.04577604,0.016197167,0.30774617,5.0113783,4,4,train,1
0.49268967,0.48238903,0.03134987,0.442191,0.560599,0.118408024,4,8,0.04577604,0.013091056,0.24873006,4.8745174,3,3,train,1
0.4972535,0.4980488,0.030773005,0.442191,0.560599,0.118408024,8,12,0.04577604,0.014216047,0.2701049,4.9641604,3,4,train,1
0.49827868,0.49883282,0.030290501,0.442191,0.560599,0.118408024,10,14,0.04577604,0.01434087,0.27247652,4.9839826,4,4,train,1
0.49710217,0.49494016,0.030310262,0.442191,0.560599,0.118408024,4,8,0.04577604,0.014299175,0.27168432,4.960586,3,2,train,1
0.49547833,0.489375,0.03056238,0.442191,0.560599,0.118408024,4,8,0.04577604,0.014246809,0.27068937,4.9286575,4,4,train,1
0.4952344,0.4868514,0.030720662,0.442191,0.560599,0.118408024,6,10,0.04577604,0.012652702,0.24040133,4.9240184,3,3,train,1
0.49751964,0.49610054,0.03032437,0.442191,0.560599,0.118408024,6,10,0.04577604,0.014021509,0.26640868,4.9689083,2,3,train,1
0.50969535,0.509741,0.00028595745,0.509131,0.510199,0.001067996,5,8,0.001067996,0.0003535277,0.0067170262,5.195788,7,6,train,0
0.5034938,0.503448,0.0005892918,0.502227,0.504516,0.0022889972,0,15,0.0012210011,0.00044984254,0.008547008,5.070127,5,6,train,0
0.50794804,0.50791,0.003558596,0.496313,0.51325,0.016936988,7,3,0.009918004,0.0037263632,0.0708009,5.1604786,5,5,train,0
0.4982981,0.4979545,0.00407667,0.492919,0.51123,0.018310994,7,4,0.0140379965,0.0049148453,0.09338206,4.9663525,7,7,train,0
0.5107175,0.510809,0.00021790373,0.510199,0.511114,0.0009149909,18,1,0.00060999393,0.00020873547,0.003965974,5.216649,7,5,train,0
0.5004269,0.50176954,0.008425621,0.476593,0.510467,0.033874005,8,10,0.03036502,0.008721474,0.165708,5.009959,6,7,train,0
0.50057936,0.500625,0.00040557235,0.499633,0.501312,0.0016790032,16,19,0.0010690093,0.00052221195,0.009922028,5.011597,8,8,train,0
0.51016825,0.510199,0.00024891645,0.509588,0.510657,0.0010690093,14,4,0.0006110072,0.00019289632,0.00366503,5.205436,7,5,train,0
0.50086915,0.500854,0.00042318547,0.500091,0.50177,0.0016790032,19,8,0.0012210011,0.00057831564,0.010987997,5.017403,7,8,train,0
0.5112821,0.511267,0.00028504,0.510809,0.511877,0.001067996,12,6,0.00060999393,0.00030510363,0.005796969,5.228187,6,6,train,0
0.5062021,0.506195,0.0003753278,0.505584,0.506958,0.0013740063,16,2,0.0010690093,0.00040963135,0.0077829957,5.1248155,7,6,train,0
0.48866025,0.496658,0.041790325,0.422729,0.558532,0.13580301,3,11,0.03646797,0.014557946,0.27660096,4.810704,2,2,train,1
0.48851952,0.496658,0.041743092,0.422729,0.558532,0.13580301,4,12,0.03646797,0.014273322,0.27119312,4.8078756,2,2,train,1
0.48827472,0.49583423,0.04168229,0.422729,0.558532,0.13580301,4,12,0.03646797,0.014462082,0.27477956,4.8029914,2,1,train,1
0.48872194,0.496658,0.041813858,0.422729,0.558532,0.13580301,4,12,0.03646797,0.014486368,0.275241,4.8119497,2,2,train,1
0.48855108,0.496658,0.041752905,0.422729,0.558532,0.13580301,3,11,0.03646797,0.014443056,0.27441806,4.8085084,2,2,train,1
0.48871636,0.496658,0.041811652,0.422729,0.558532,0.13580301,3,11,0.03646797,0.014616994,0.2777229,4.8118362,2,2,train,1
0.4886013,0.496658,0.04176945,0.422729,0.558532,0.13580301,4,12,0.03646797,0.014359373,0.27282807,4.8095174,2,2,train,1
0.48795384,0.492996,0.041643906,0.422729,0.558532,0.13580301,3,11,0.03646797,0.0146633135,0.27860296,4.7966623,2,1,train,1
0.48807082,0.49379537,0.041652463,0.422729,0.558532,0.13580301,4,12,0.03646797,0.014676699,0.2788573,4.79896,2,1,train,1
0.48892322,0.496658,0.04190253,0.422729,0.558532,0.13580301,4,12,0.03646797,0.014698228,0.27926633,4.816034,2,2,train,1
0.51027507,0.510199,0.00046899938,0.509131,0.511572,0.002440989,6,0,0.00167799,0.0004898937,0.009307981,5.2076178,6,6,train,0
0.5026392,0.50299,0.0050914506,0.492004,0.518096,0.026092023,8,7,0.026092023,0.004722106,0.08972001,5.053443,4,4,train,0
0.49910688,0.4997095,0.007190492,0.475372,0.514129,0.038756996,9,19,0.022125006,0.0054851645,0.104218125,4.9831877,6,6,train,0
0.5089349,0.512266,0.06575789,0.415761,0.602071,0.18631,7,14,0.04699999,0.018688422,0.35508,5.2667785,1,1,train,1
0.5007092,0.4994045,0.0043538334,0.493072,0.510772,0.017699987,5,4,0.017699987,0.0057260063,0.10879412,5.014571,8,8,train,0
0.5008617,0.500549,0.0028067706,0.496582,0.509552,0.0129700005,10,9,0.0129700005,0.00314806,0.05981314,5.017406,6,6,train,0
0.49461192,0.4973055,0.037539963,0.431006,0.55628,0.125274,7,14,0.052489996,0.013138526,0.249632,4.921005,1,2,train,1
0.4944517,0.4960845,0.03753333,0.431006,0.55628,0.125274,6,13,0.052489996,0.013138526,0.249632,4.9178247,2,1,train,1
0.510565,0.5100465,0.0037177037,0.505316,0.521185,0.015868962,11,9,0.013579965,0.004706094,0.08941579,5.213808,7,6,train,0
0.51074046,0.51012254,0.0039667585,0.505469,0.523474,0.018004954,15,3,0.014953971,0.0044971453,0.08544576,5.217433,6,6,train,0
0.50302845,0.503143,0.00060249167,0.501617,0.503906,0.0022889972,6,9,0.0018309951,0.0005622098,0.010681987,5.060759,5,5,train,0
0.4917009,0.492966,0.034241214,0.428271,0.549421,0.12115002,8,14,0.035400003,0.013132114,0.24951017,4.8588443,1,2,train,1
0.49113876,0.49251536,0.03414794,0.428271,0.549421,0.12115002,6,12,0.035400003,0.012948272,0.24601716,4.847668,1,1,train,1
0.49114895,0.49159598,0.03421198,0.428271,0.549421,0.12115002,8,14,0.035400003,0.013630205,0.2589739,4.8479543,1,2,train,1
0.49064237,0.49159598,0.034163162,0.428271,0.549421,0.12115002,8,14,0.035400003,0.013589473,0.2582,4.83794,1,2,train,1
0.4906009,0.4913184,0.0341429,0.428271,0.549421,0.12115002,7,13,0.035400003,0.013064238,0.24822053,4.8371005,1,1,train,1
0.49089894,0.49159598,0.034133404,0.428271,0.549421,0.12115002,7,13,0.035400003,0.012766554,0.24256453,4.8429375,2,2,train,1
0.49150723,0.492966,0.034195848,0.428271,0.549421,0.12115002,8,14,0.035400003,0.013003218,0.24706113,4.8549743,2,2,train,1
0.490951,0.49243373,0.034129787,0.428271,0.549421,0.12115002,7,13,0.035400003,0.012767334,0.24257934,4.8439546,1,1,train,1
0.4900205,0.490526,0.034201708,0.428271,0.549421,0.12115002,6,12,0.035400003,0.0130518535,0.24798521,4.825798,2,1,train,1
0.49070185,0.49159598,0.034172844,0.428271,0.549421,0.12115002,8,14,0.035400003,0.013411172,0.25481227,4.8391223,2,2,train,1
0.509741,0.509741,0.00017409743,0.509436,0.510046,0.00060999393,14,1,0.00030601025,0.00015263181,0.0029000044,5.196719,5,5,train,0
0.51090825,0.510809,0.00020048283,0.510504,0.511419,0.0009149909,0,11,0.0004580021,0.00017673719,0.0033580065,5.220547,6,7,train,0
0.5095885,0.50997,0.0014050928,0.505011,0.511267,0.0062559843,18,19,0.0062559843,0.0011162601,0.021208942,5.1936502,6,5,train,0
0.50469923,0.504745,0.000536326,0.503601,0.505584,0.001982987,19,0,0.001067996,0.00042552385,0.008084953,5.094432,6,7,train,0
0.49972486,0.49986202,0.0031041624,0.488952,0.505737,0.016784996,4,0,0.010833979,0.0019114284,0.03631714,4.9946904,7,6,train,0
0.51059544,0.509588,0.0034233618,0.506537,0.523474,0.016936958,2,7,0.014953971,0.0028992044,0.055084884,5.214388,4,5,train,0
0.51116,0.51119053,0.0002368459,0.510809,0.511725,0.0009160042,6,14,0.0004580021,0.00019273632,0.0036619902,5.225693,6,6,train,0
0.49846607,0.498565,0.0009543976,0.495819,0.499481,0.0036619902,0,11,0.002745986,0.00090752466,0.017242968,4.969387,6,6,train,0
0.5030662,0.504981,0.04709435,0.432426,0.572654,0.140228,8,16,0.032654047,0.012680737,0.24093401,5.1058693,2,2,train,1
0.50215065,0.504981,0.047233418,0.432426,0.572654,0.140228,7,15,0.032654047,0.013805105,0.262297,5.087725,1,2,train,1
0.50154036,0.504905,0.047274712,0.432426,0.572654,0.140228,6,14,0.032654047,0.01412637,0.26840103,5.075551,1,1,train,1
0.51071,0.510657,0.0004507354,0.509741,0.51203,0.0022889972,9,18,0.0015259981,0.0003934189,0.007474959,5.2164993,4,5,train,0
0.51018345,0.510275,0.000648987,0.508215,0.511114,0.002898991,1,8,0.0019840002,0.00051394576,0.009764969,5.205753,5,5,train,0
0.50315046,0.503143,0.0006934434,0.501617,0.504211,0.0025939941,4,15,0.0018309951,0.0006263664,0.011900961,5.063218,5,5,train,0
0.4940792,0.4942925,0.0047517023,0.478881,0.500091,0.021210015,5,12,0.012513012,0.0035818408,0.068054974,4.8827367,4,4,train,0
0.49993,0.501937,0.031949766,0.437468,0.569152,0.131684,10,14,0.05539,0.015495745,0.29441917,5.019016,3,3,train,1
0.49831742,0.4948113,0.03189556,0.437468,0.569152,0.131684,7,11,0.05539,0.015698593,0.29827327,4.98675,4,5,train,1
0.4991501,0.49917823,0.031908344,0.437468,0.569152,0.131684,7,11,0.05539,0.016909584,0.3212821,5.003379,4,4,train,1
0.49947152,0.5004873,0.03180427,0.437468,0.569152,0.131684,11,15,0.05539,0.016320234,0.31008446,5.0096664,4,3,train,1
0.49864388,0.49805945,0.031979684,0.437468,0.569152,0.131684,6,10,0.05539,0.017640278,0.3351653,4.9933677,4,4,train,1
0.49773568,0.4964004,0.03229864,0.437468,0.569152,0.131684,7,11,0.05539,0.017491156,0.33233196,4.9756813,4,4,train,1
0.49780726,0.49792135,0.032431323,0.437468,0.569152,0.131684,8,12,0.05539,0.016266068,0.3090553,4.9772778,3,4,train,1
0.49818525,0.497414,0.03199263,0.437468,0.569152,0.131684,5,9,0.05539,0.016515423,0.31379303,4.984241,4,4,train,1
0.49928793,0.5009904,0.03194492,0.437468,0.569152,0.131684,11,15,0.05539,0.015326525,0.29120398,5.0061774,5,4,train,1
0.5001985,0.501937,0.03182099,0.437468,0.569152,0.131684,11,15,0.05539,0.01630713,0.30983546,5.024221,2,3,train,1
0.5106183,0.510504,0.00019222757,0.510199,0.510962,0.00076299906,3,1,0.00060999393,0.00022478793,0.004270971,5.214624,5,7,train,0
0.51079386,0.510809,0.00015927633,0.510504,0.511267,0.00076299906,11,3,0.00060999393,0.00016063137,0.0030519962,5.218209,3,5,train,0
0.50600374,0.505889,0.0004257249,0.505432,0.506805,0.001372993,17,0,0.001067996,0.0004336834,0.0082399845,5.1207995,7,6,train,0
0.4974801,0.4941249,0.03337785,0.437567,0.566656,0.129089,4,8,0.054473966,0.015913174,0.30235028,4.9720116,3,3,train,1
0.49773806,0.49208927,0.033192124,0.437567,0.566656,0.129089,4,8,0.054473966,0.015511825,0.29472467,4.9768987,4,3,train,1
0.49753848,0.49217254,0.033456735,0.437567,0.566656,0.129089,7,11,0.054473966,0.014089164,0.26769412,4.973277,3,3,train,1
0.50196373,0.50138795,0.03260525,0.437567,0.566656,0.129089,12,16,0.054473966,0.014444991,0.27445483,5.0606136,3,3,train,1
0.5026081,0.5035001,0.03260348,0.437567,0.566656,0.129089,12,16,0.054473966,0.0139760785,0.2655455,5.0735574,5,5,train,1
0.49753445,0.49100804,0.033173624,0.437567,0.566656,0.129089,4,8,0.054473966,0.014816281,0.28150934,4.972821,4,4,train,1
0.5009357,0.5021485,0.03309564,0.437567,0.566656,0.129089,9,13,0.054473966,0.015468118,0.29389423,5.040638,3,3,train,1
0.5005101,0.49803993,0.032783322,0.437567,0.566656,0.129089,11,15,0.054473966,0.015619336,0.29676738,5.0317016,3,3,train,1
0.5026028,0.50312465,0.032781105,0.437567,0.566656,0.129089,12,16,0.054473966,0.016040409,0.3047678,5.0736833,4,4,train,1
0.4977211,0.49314055,0.033267897,0.437567,0.566656,0.129089,4,8,0.054473966,0.01577238,0.29967523,4.9766617,4,3,train,1
0.5053476,0.5053555,0.000435586,0.504364,0.506195,0.0018309951,13,2,0.001067996,0.00047378792,0.00900197,5.1075277,7,7,train,0
0.5041195,0.504211,0.00047846598,0.503448,0.505126,0.00167799,19,2,0.001067996,0.00036931352,0.007016957,5.082734,5,7,train,0
0.49850416,0.4987175,0.0040633758,0.492919,0.51123,0.018310994,3,0,0.0140379965,0.0041036354,0.077969074,4.9704576,7,6,train,0
0.51035905,0.510275,0.00024826097,0.510046,0.510809,0.00076299906,9,4,0.00076299906,0.00030510363,0.005796969,5.209327,8,6,train,0
0.4809056,0.4803822,0.029629342,0.419562,0.538275,0.11871299,9,14,0.040436,0.014756021,0.2803644,4.642961,2,3,train,1
0.48228455,0.48375773,0.02950657,0.419562,0.538275,0.11871299,6,11,0.040436,0.014615552,0.27769548,4.669381,2,3,train,1
0.47977766,0.47664243,0.02953012,0.419562,0.538275,0.11871299,10,15,0.040436,0.014588865,0.27718845,4.621173,3,3,train,1
0.48064178,0.47965768,0.029417854,0.419562,0.538275,0.11871299,7,12,0.040436,0.014735937,0.2799828,4.6376386,3,3,train,1
0.48158282,0.4817114,0.029403966,0.419562,0.538275,0.11871299,6,11,0.040436,0.014166644,0.26916623,4.655732,2,3,train,1
0.48172393,0.4820197,0.02940469,0.419562,0.538275,0.11871299,7,12,0.040436,0.014029505,0.26656058,4.658452,3,2,train,1
0.48118228,0.4805979,0.029425688,0.419562,0.538275,0.11871299,9,14,0.040436,0.014246296,0.27067962,4.6480455,2,3,train,1
0.4826196,0.48510283,0.029478623,0.419562,0.538275,0.11871299,7,12,0.040436,0.014249556,0.27074155,4.675813,2,3,train,1
0.48141116,0.47991407,0.029439585,0.419562,0.538275,0.11871299,7,12,0.040436,0.014176756,0.26935837,4.6524677,3,3,train,1
0.48036113,0.4788581,0.02941109,0.419562,0.538275,0.11871299,7,12,0.040436,0.014144998,0.26875496,4.6322374,2,2,train,1
0.50972575,0.5106565,0.0042437688,0.494177,0.51615,0.021972984,12,10,0.016326994,0.004103836,0.07797289,5.196768,5,6,train,0
0.5105268,0.510504,0.0016343567,0.506231,0.514471,0.0082399845,17,19,0.0070189834,0.0013493142,0.025636971,5.2128043,5,6,train,0
0.5015736,0.505481,0.052714217,0.420791,0.576281,0.15549001,8,15,0.04500997,0.015603063,0.29645818,5.087097,1,1,train,1
0.5014312,0.505481,0.0527089,0.420791,0.576281,0.15549001,8,15,0.04500997,0.015752897,0.29930502,5.0842304,1,1,train,1
0.5003643,0.505481,0.052901287,0.420791,0.576281,0.15549001,7,14,0.04500997,0.016056525,0.30507398,5.0632596,2,1,train,1
0.50140136,0.505481,0.05270872,0.420791,0.576281,0.15549001,8,15,0.04500997,0.015784333,0.29990232,5.0836315,1,1,train,1
0.5009787,0.505481,0.052740533,0.420791,0.576281,0.15549001,7,14,0.04500997,0.015685996,0.29803392,5.0752244,1,1,train,1
0.50211346,0.50685596,0.05280068,0.420791,0.576281,0.15549001,8,15,0.04500997,0.01606109,0.3051607,5.098118,1,2,train,1
0.5016032,0.50571334,0.05271624,0.420791,0.576281,0.15549001,8,15,0.04500997,0.015571855,0.29586524,5.087696,1,1,train,1
0.50189054,0.50685596,0.052752264,0.420791,0.576281,0.15549001,8,15,0.04500997,0.01582636,0.30070084,5.0935383,1,2,train,1
0.5018493,0.50685596,0.05274527,0.420791,0.576281,0.15549001,8,15,0.04500997,0.015782971,0.29987645,5.092696,1,2,train,1
0.5020947,0.50685596,0.05279591,0.420791,0.576281,0.15549001,8,15,0.04500997,0.016041283,0.30478436,5.09773,1,2,train,1
0.5046076,0.504669,0.00051372097,0.503601,0.505432,0.0018309951,19,2,0.001067996,0.00036931352,0.007016957,5.092583,5,7,train,0
0.50244856,0.5031425,0.0031793325,0.494293,0.507263,0.0129700005,7,5,0.011139005,0.002577948,0.04898101,5.0492935,6,6,train,0
0.5107558,0.510809,0.00018227549,0.510504,0.511267,0.00076299906,15,2,0.00060999393,0.0002007359,0.003813982,5.21743,5,6,train,0
0.5000068,0.4996869,0.045035973,0.411322,0.586645,0.17532301,8,13,0.07232702,0.02025514,0.38484764,5.040701,2,3,train,1
0.5008899,0.50277257,0.04511691,0.411322,0.586645,0.17532301,9,14,0.07232702,0.019938048,0.37882292,5.0585246,4,3,train,1
0.499708,0.4987545,0.045101497,0.411322,0.586645,0.17532301,4,9,0.07232702,0.021430815,0.4071855,5.0348444,4,4,train,1
0.4995448,0.4993059,0.04506425,0.411322,0.586645,0.17532301,4,9,0.07232702,0.020391488,0.3874383,5.031516,3,3,train,1
0.49843472,0.49748042,0.045080535,0.411322,0.586645,0.17532301,7,12,0.07232702,0.020489821,0.3893066,5.009389,3,3,train,1
0.50028026,0.50282943,0.0451247,0.411322,0.586645,0.17532301,9,14,0.07232702,0.020117681,0.38223594,5.0463314,4,3,train,1
0.49846435,0.49722144,0.045131333,0.411322,0.586645,0.17532301,4,9,0.07232702,0.021317298,0.40502867,5.010071,3,3,train,1
0.5005058,0.50215065,0.045073483,0.411322,0.586645,0.17532301,8,13,0.07232702,0.020679135,0.39290357,5.050751,3,4,train,1
0.49940348,0.497723,0.045056112,0.411322,0.586645,0.17532301,10,15,0.07232702,0.020537334,0.39020935,5.028678,2,3,train,1
0.49987864,0.4988509,0.045045305,0.411322,0.586645,0.17532301,6,11,0.07232702,0.020277197,0.38526675,5.038155,3,3,train,1
0.5051951,0.505126,0.0008954987,0.502838,0.506805,0.003966987,12,19,0.002135992,0.00090741797,0.017240942,5.104457,7,7,train,0
0.50239533,0.502075,0.0010831447,0.500854,0.505432,0.0045779943,0,17,0.0038149953,0.0011403122,0.02166593,5.048045,6,7,train,0
0.5030361,0.503677,0.004580043,0.4859,0.513519,0.027618974,3,0,0.017089993,0.0026340468,0.05004689,5.061325,6,6,train,0
0.5073697,0.5097402,0.042852845,0.428106,0.574591,0.14648497,7,13,0.03890997,0.016135907,0.3065822,5.185209,2,3,train,1
0.50702035,0.50925815,0.042796906,0.428106,0.574591,0.14648497,6,12,0.03890997,0.015851533,0.3011791,5.1780243,3,2,train,1
0.5071382,0.5082915,0.042827975,0.428106,0.574591,0.14648497,6,12,0.03890997,0.01641485,0.31188214,5.1804686,3,2,train,1
0.50627947,0.50623834,0.04279437,0.428106,0.574591,0.14648497,7,13,0.03890997,0.016059596,0.30513233,5.1630063,3,2,train,1
0.50592744,0.5059265,0.042833522,0.428106,0.574591,0.14648497,6,12,0.03890997,0.016039386,0.30474833,5.1559477,3,2,train,1
0.5068089,0.5082915,0.042786475,0.428106,0.574591,0.14648497,6,12,0.03890997,0.015767574,0.2995839,5.173719,3,3,train,1
0.50724345,0.5082915,0.042854626,0.428106,0.574591,0.14648497,8,14,0.03890997,0.016593374,0.31527412,5.182649,3,3,train,1
0.5070863,0.5087063,0.042810954,0.428106,0.574591,0.14648497,7,13,0.03890997,0.015837591,0.30091423,5.1793876,2,3,train,1
0.5069915,0.5082915,0.04284624,0.428106,0.574591,0.14648497,8,14,0.03890997,0.016517047,0.31382388,5.1775246,2,3,train,1
0.5069577,0.5082915,0.04283173,0.428106,0.574591,0.14648497,6,12,0.03890997,0.016334383,0.31035328,5.1768136,3,3,train,1
0.49835157,0.4979545,0.004091086,0.492919,0.51123,0.018310994,5,2,0.0140379965,0.0046980036,0.08926207,4.96742,7,6,train,0
0.49544495,0.501206,0.059652008,0.403701,0.582691,0.17899,8,16,0.059360027,0.016913684,0.32136,4.980482,1,2,train,1
0.4940645,0.498841,0.059836138,0.403701,0.582691,0.17899,7,15,0.059360027,0.017636843,0.33510002,4.953602,1,1,train,1
0.49352303,0.493426,0.059866425,0.403701,0.582691,0.17899,6,14,0.059360027,0.01795737,0.34119004,4.942979,1,1,train,1
0.49302706,0.48846602,0.059836708,0.403701,0.582691,0.17899,5,13,0.059360027,0.017925791,0.34059003,4.9331217,1,1,train,1
0.49231753,0.48846602,0.059723675,0.403701,0.582691,0.17899,4,12,0.059360027,0.017612107,0.33463004,4.918869,1,1,train,1
0.5105726,0.510504,0.00022355535,0.510199,0.510962,0.00076299906,5,0,0.00060999393,0.00020873547,0.003965974,5.21369,5,6,train,0
0.5108244,0.510809,0.00012671764,0.510504,0.511114,0.00060999393,3,16,0.0004580021,0.00012852643,0.0024420023,5.2188315,5,3,train,0
0.50067854,0.5007775,0.00061840564,0.499176,0.50177,0.002594024,14,17,0.002289027,0.000819109,0.015563071,5.013588,7,8,train,0
0.48495597,0.4836573,0.055983428,0.384931,0.585591,0.20066002,6,11,0.076599985,0.022398638,0.42557412,4.766328,3,3,train,1
0.48440337,0.48306435,0.056002732,0.384931,0.585591,0.20066002,6,11,0.076599985,0.022337371,0.42441007,4.7556586,3,3,train,1
0.48319584,0.47856438,0.05604114,0.384931,0.585591,0.20066002,8,13,0.076599985,0.022021458,0.4184077,4.7323766,2,2,train,1
0.48465163,0.48351216,0.05594777,0.384931,0.585591,0.20066002,7,12,0.076599985,0.022229636,0.42236307,4.7603455,3,2,train,1
0.48307958,0.4801303,0.056068253,0.384931,0.585591,0.20066002,5,10,0.076599985,0.02242407,0.42605734,4.730191,3,2,train,1
0.48554787,0.4861719,0.056045074,0.384931,0.585591,0.20066002,10,15,0.076599985,0.023783984,0.45189568,4.777956,3,3,train,1
0.4853933,0.4838333,0.055981286,0.384931,0.585591,0.20066002,8,13,0.076599985,0.02207839,0.41948938,4.774811,2,2,train,1
0.48424307,0.48202917,0.055956785,0.384931,0.585591,0.20066002,8,13,0.076599985,0.022221163,0.4222021,4.75245,3,4,train,1
0.48502284,0.48370612,0.055961356,0.384931,0.585591,0.20066002,10,15,0.076599985,0.02326897,0.44211042,4.767577,3,3,train,1
0.4859864,0.48769844,0.055903096,0.384931,0.585591,0.20066002,10,15,0.076599985,0.021548498,0.40942147,4.7861605,2,3,train,1
0.49807683,0.497726,0.0041098567,0.492919,0.51123,0.018310994,8,5,0.0140379965,0.005091477,0.09673807,4.961949,7,7,train,0
0.47436896,0.4882388,0.031862054,0.414794,0.533508,0.118714005,10,14,0.054473996,0.013298905,0.2526792,4.520822,5,4,train,1
0.47174662,0.48170432,0.03168933,0.414794,0.533508,0.118714005,9,13,0.054473996,0.014375987,0.27314377,4.470982,5,5,train,1
0.47835678,0.4890285,0.03134442,0.414794,0.533508,0.118714005,12,16,0.054473996,0.013176753,0.2503583,4.5961547,3,4,train,1
0.47661176,0.4897891,0.032205284,0.414794,0.533508,0.118714005,11,15,0.054473996,0.0130059095,0.24711227,4.56392,4,3,train,1
0.4636511,0.45546424,0.030561382,0.414794,0.533508,0.118714005,4,8,0.054473996,0.01407038,0.2673372,4.3181257,4,4,train,1
0.46520275,0.45420992,0.031047195,0.414794,0.533508,0.118714005,5,9,0.054473996,0.012365978,0.23495358,4.347551,3,4,train,1
0.46799502,0.45982277,0.031339865,0.414794,0.533508,0.118714005,7,11,0.054473996,0.013575501,0.2579345,4.400031,4,4,train,1
0.46754465,0.4536751,0.031925656,0.414794,0.533508,0.118714005,7,11,0.054473996,0.012714971,0.24158445,4.3923445,4,4,train,1
0.4636175,0.45485854,0.030553145,0.414794,0.533508,0.118714005,4,8,0.054473996,0.012612726,0.23964179,4.317494,2,3,train,1
0.4713257,0.4716552,0.03330247,0.414794,0.533508,0.118714005,8,12,0.054473996,0.012085305,0.22962078,4.465139,3,3,train,1
0.5110761,0.511267,0.002928211,0.499518,0.516455,0.016936988,0,2,0.0143429935,0.0016702602,0.031734943,5.224146,5,5,train,0
0.5001598,0.501159,0.008410404,0.476593,0.510467,0.033874005,13,15,0.03036502,0.00869742,0.16525099,5.004611,6,6,train,0
0.5099926,0.510199,0.0004951001,0.50852,0.510809,0.0022889972,10,19,0.0018309951,0.00049783994,0.009458959,5.2018538,6,5,train,0
0.4981568,0.49882343,0.05053145,0.407211,0.579031,0.17181998,6,12,0.05692002,0.018450648,0.3505623,5.014272,3,2,train,1
0.49654546,0.49478716,0.050531294,0.407211,0.579031,0.17181998,5,11,0.05692002,0.018425504,0.35008457,4.982217,3,2,train,1
0.49757624,0.49807864,0.050498884,0.407211,0.579031,0.17181998,5,11,0.05692002,0.018591585,0.3532401,5.002646,3,1,train,1
0.4980692,0.49880737,0.050515667,0.407211,0.579031,0.17181998,8,14,0.05692002,0.018570147,0.3528328,5.0124955,3,2,train,1
0.49723172,0.497241,0.05056279,0.407211,0.579031,0.17181998,5,11,0.05692002,0.019821148,0.37660182,4.995921,3,2,train,1
0.49779359,0.497241,0.050554056,0.407211,0.579031,0.17181998,8,14,0.05692002,0.019146675,0.36378685,5.0070834,2,2,train,1
0.4970069,0.49674237,0.050501164,0.407211,0.579031,0.17181998,5,11,0.05692002,0.018504327,0.35158223,4.991326,2,2,train,1
0.49834052,0.49914598,0.05055863,0.407211,0.579031,0.17181998,8,14,0.05692002,0.018895704,0.3590184,5.0179887,3,2,train,1
0.4974622,0.49753582,0.050501425,0.407211,0.579031,0.17181998,7,13,0.05692002,0.018383734,0.34929094,5.000381,3,2,train,1
0.49787873,0.497241,0.05055976,0.407211,0.579031,0.17181998,8,14,0.05692002,0.019259537,0.3659312,5.008791,3,3,train,1
0.5109465,0.5108855,0.00034078065,0.510504,0.51203,0.0015259981,19,17,0.0015259981,0.00031299653,0.005946934,5.221329,5,7,train,0
0.4995951,0.499633,0.00048465832,0.49826,0.500396,0.0021360219,3,18,0.0010680258,0.0004096392,0.0077831447,4.991911,6,5,train,0
0.500407,0.5016777,0.04601987,0.420782,0.570013,0.14923099,6,12,0.037231,0.015983334,0.30368334,5.0504985,2,1,train,1
0.5006825,0.50415325,0.0460279,0.420782,0.570013,0.14923099,8,14,0.037231,0.015492541,0.29435828,5.0560303,2,2,train,1
0.49995404,0.50084156,0.046055965,0.420782,0.570013,0.14923099,7,13,0.037231,0.015875548,0.3016354,5.0415025,2,1,train,1
0.500461,0.5015015,0.046047714,0.420782,0.570013,0.14923099,7,13,0.037231,0.016291672,0.30954176,5.05163,1,1,train,1
0.5002292,0.5015015,0.046078052,0.420782,0.570013,0.14923099,6,12,0.037231,0.016724406,0.31776372,5.047047,2,1,train,1
0.5001507,0.5015015,0.04605371,0.420782,0.570013,0.14923099,7,13,0.037231,0.015784087,0.29989764,5.0454316,2,2,train,1
0.49926382,0.496771,0.046109065,0.420782,0.570013,0.14923099,6,12,0.037231,0.01600621,0.304118,5.027807,2,2,train,1
0.5003505,0.5015015,0.04604961,0.420782,0.570013,0.14923099,6,12,0.037231,0.016482199,0.3131618,5.0494223,2,1,train,1
0.5005263,0.50289124,0.04601778,0.420782,0.570013,0.14923099,8,14,0.037231,0.015593637,0.2962791,5.052884,1,2,train,1
0.5001075,0.5015015,0.04605454,0.420782,0.570013,0.14923099,7,13,0.037231,0.01578167,0.29985175,5.04457,2,2,train,1
0.51093876,0.51058054,0.0020404833,0.506231,0.515234,0.009002984,18,17,0.009002984,0.00186326,0.03540194,5.221252,5,6,train,0
0.5100233,0.510046,0.0002565246,0.509741,0.510809,0.001067996,17,1,0.0009149909,0.00028099827,0.005338967,5.2024784,6,6,train,0
0.5104582,0.510504,0.0002511674,0.510046,0.510962,0.0009160042,13,7,0.0006110072,0.00022494793,0.0042740107,5.2113543,6,5,train,0
0.51032084,0.510199,0.00022424343,0.510046,0.510809,0.00076299906,11,6,0.00076299906,0.00027294536,0.0051859617,5.208548,7,6,train,0
0.5107253,0.510809,0.00012267557,0.510504,0.510962,0.0004580021,2,14,0.00030499697,9.62615e-05,0.0018289685,5.216808,4,4,train,0
0.50967234,0.509741,0.00029152088,0.509131,0.510199,0.001067996,2,5,0.001067996,0.00036958017,0.007022023,5.1953197,6,7,train,0
0.5088102,0.509283,0.0012617906,0.505469,0.509894,0.004424989,1,16,0.0036619902,0.0008833659,0.016783953,5.1777883,7,6,train,0
0.5061182,0.50611854,0.00038143885,0.505432,0.506805,0.001372993,13,4,0.001067996,0.00044968253,0.008543968,5.1231155,8,7,train,0
0.49953413,0.49955702,0.00054861215,0.49826,0.500396,0.0021360219,2,17,0.0010680258,0.00041763877,0.007935137,4.990693,6,5,train,0
0.507353,0.50882554,0.004906164,0.493567,0.515234,0.021667004,11,2,0.013427019,0.005131731,0.09750289,5.1486244,6,6,train,0
0.49762955,0.49327683,0.055615526,0.393973,0.600272,0.206299,6,11,0.07308999,0.022380788,0.42523497,5.014565,3,3,train,1
0.49985203,0.50102484,0.055483896,0.393973,0.600272,0.206299,9,14,0.07308999,0.023239724,0.44155475,5.058612,3,3,train,1
0.500061,0.4983313,0.05537508,0.393973,0.600272,0.206299,11,16,0.07308999,0.022826439,0.43370235,5.0625477,3,3,train,1
0.5023162,0.50655115,0.055453476,0.393973,0.600272,0.206299,11,16,0.07308999,0.023401638,0.44463113,5.1079326,3,3,train,1
0.5004747,0.500964,0.055474166,0.393973,0.600272,0.206299,9,14,0.07308999,0.023441786,0.44539392,5.071047,4,4,train,1
0.50049454,0.50176406,0.05545282,0.393973,0.600272,0.206299,9,14,0.07308999,0.022995375,0.43691212,5.071395,3,3,train,1
0.50034016,0.5026667,0.05543682,0.393973,0.600272,0.206299,10,15,0.07308999,0.022329234,0.42425543,5.068271,4,3,train,1
0.50294363,0.50775,0.055511314,0.393973,0.600272,0.206299,10,15,0.07308999,0.022149395,0.4208385,5.120676,3,3,train,1
0.49792138,0.49305394,0.055579998,0.393973,0.600272,0.206299,6,11,0.07308999,0.022238132,0.4225245,5.0202966,3,2,train,1
0.5008366,0.5036334,0.055524066,0.393973,0.600272,0.206299,10,15,0.07308999,0.022922799,0.4355332,5.078405,3,3,train,1
0.50510347,0.505126,0.00043753532,0.504364,0.506042,0.00167799,13,2,0.001067996,0.0004575221,0.00869292,5.1025934,7,8,train,0
0.5006176,0.50329554,0.008483027,0.476593,0.510467,0.033874005,7,9,0.03036502,0.0084725255,0.16097799,5.0137978,6,6,train,0
0.4959713,0.4968105,0.0047182306,0.478881,0.503601,0.024720013,6,19,0.012513012,0.0029876342,0.05676505,4.920196,5,4,train,0
0.49811515,0.498413,0.0011402561,0.495361,0.499481,0.0041199923,10,19,0.002745986,0.001204682,0.022888958,4.9623995,6,6,train,0
0.5047373,0.504821,0.00034261245,0.504058,0.505126,0.001067996,9,6,0.0009160042,0.00046552168,0.008844912,5.095198,7,7,train,0
0.50420344,0.5048975,0.006541651,0.487579,0.520996,0.033416986,6,14,0.0152590275,0.005766152,0.10955688,5.0852757,6,5,train,0
0.5097182,0.510809,0.0041847425,0.494177,0.51615,0.021972984,6,4,0.016326994,0.0035657317,0.067748904,5.1966023,4,7,train,0
0.51122123,0.51119053,0.0005200224,0.510351,0.51203,0.0016790032,4,1,0.0015259981,0.00055415696,0.010528982,5.2269473,6,8,train,0
0.50896275,0.510504,0.005482203,0.494024,0.51615,0.02212599,16,3,0.016784996,0.005902783,0.112152874,5.181464,4,6,train,0
0.5047679,0.504821,0.00047582283,0.503601,0.505584,0.001982987,18,1,0.001067996,0.00042552385,0.008084953,5.0958166,6,7,train,0
0.5047833,0.50543153,0.0063376324,0.487579,0.520996,0.033416986,5,13,0.0152590275,0.005597573,0.10635388,5.0969243,5,6,train,0
0.5050424,0.505126,0.00042999463,0.504364,0.506042,0.00167799,14,3,0.001067996,0.00044946923,0.008539915,5.1013603,7,7,train,0
0.5106032,0.510809,0.00082632626,0.508063,0.51203,0.003966987,2,1,0.003966987,0.00038531265,0.0073209405,5.2143264,5,7,train,0
0.5079862,0.50791,0.0034693433,0.496313,0.51325,0.016936988,11,7,0.009918004,0.003525574,0.066985905,5.1612406,6,5,train,0
0.49858046,0.4989465,0.0017202587,0.495208,0.501159,0.005951017,8,15,0.005798012,0.002015848,0.03830111,4.971709,6,6,train,0
0.5006709,0.500701,0.0006171329,0.499176,0.50177,0.002594024,15,18,0.002289027,0.0008030565,0.015258074,5.013435,8,8,train,0
0.49730507,0.4981445,0.045230906,0.42597,0.565741,0.13977101,8,16,0.034179986,0.013459949,0.25573903,4.987163,1,1,train,1
0.496771,0.4981445,0.045289874,0.42597,0.565741,0.13977101,7,15,0.034179986,0.014134474,0.26855502,4.9766526,1,1,train,1
0.49656504,0.4966185,0.04529461,0.42597,0.565741,0.13977101,6,14,0.034179986,0.0144477375,0.27450702,4.972568,1,1,train,1
0.49645823,0.4955505,0.0452922,0.42597,0.565741,0.13977101,5,13,0.034179986,0.014439684,0.274354,4.970443,1,1,train,1
0.4962369,0.4955505,0.045277085,0.42597,0.565741,0.13977101,4,12,0.034179986,0.014078317,0.26748803,4.966023,1,1,train,1
0.49797755,0.497802,0.0023238577,0.492919,0.502227,0.00930801,9,18,0.0076300204,0.0028510627,0.05417019,4.9597406,6,7,train,0
0.5052818,0.5056477,0.031780764,0.421966,0.565856,0.14389,11,15,0.05340603,0.017085845,0.32463104,5.1263957,4,4,train,1
0.505913,0.5072885,0.031917144,0.421966,0.565856,0.14389,11,15,0.05340603,0.018068448,0.34330052,5.1393332,2,3,train,1
0.50480855,0.5059297,0.03192519,0.421966,0.565856,0.14389,8,12,0.05340603,0.017263077,0.32799846,5.1170187,4,4,train,1
0.5045246,0.50326973,0.031950004,0.421966,0.565856,0.14389,8,12,0.05340603,0.01786871,0.3395055,5.111318,4,5,train,1
0.5037665,0.50364655,0.031913,0.421966,0.565856,0.14389,9,13,0.05340603,0.017028967,0.32355037,5.0959826,3,3,train,1
0.5037486,0.503219,0.032022696,0.421966,0.565856,0.14389,5,9,0.05340603,0.018699475,0.35529003,5.0957627,4,3,train,1
0.50561947,0.50663555,0.031850487,0.421966,0.565856,0.14389,9,13,0.05340603,0.016873764,0.32060152,5.133309,3,3,train,1
0.50461215,0.5066016,0.03201073,0.421966,0.565856,0.14389,9,13,0.05340603,0.019426381,0.36910126,5.113163,4,3,train,1
0.50402534,0.50218487,0.03193433,0.421966,0.565856,0.14389,6,10,0.05340603,0.017456938,0.33168182,5.1012263,3,3,train,1
0.50408924,0.50530225,0.032009695,0.421966,0.565856,0.14389,4,8,0.05340603,0.018965881,0.36035174,5.102611,4,3,train,1
0.51130486,0.511267,0.00014371185,0.511114,0.511572,0.0004580021,0,5,0.0004580021,0.00012047354,0.0022889972,5.228654,4,4,train,0
0.4973103,0.4990175,0.040471252,0.42219,0.564401,0.14221096,7,13,0.04455602,0.015480365,0.29412693,4.97911,3,3,train,1
0.49657267,0.49856448,0.040384617,0.42219,0.564401,0.14221096,4,10,0.04455602,0.01568882,0.29808757,4.9643083,2,1,train,1
0.49688393,0.497263,0.040472753,0.42219,0.564401,0.14221096,6,12,0.04455602,0.01576521,0.299539,4.970634,3,3,train,1
0.49714392,0.4990175,0.040443446,0.42219,0.564401,0.14221096,7,13,0.04455602,0.015641483,0.29718816,4.9757557,3,3,train,1
0.49615702,0.497263,0.040416908,0.42219,0.564401,0.14221096,6,12,0.04455602,0.016582215,0.3150621,4.9561067,2,3,train,1
0.49630538,0.497263,0.04047054,0.42219,0.564401,0.14221096,5,11,0.04455602,0.016277181,0.30926645,4.959139,2,2,train,1
0.4952817,0.494745,0.040383138,0.42219,0.564401,0.14221096,4,10,0.04455602,0.015538049,0.29522294,4.938696,2,2,train,1
0.49733162,0.4990175,0.040496685,0.42219,0.564401,0.14221096,8,14,0.04455602,0.015871715,0.30156258,4.979575,1,2,train,1
0.4958384,0.49598873,0.04035701,0.42219,0.564401,0.14221096,7,13,0.04455602,0.015704773,0.2983907,4.9496884,2,2,train,1
0.4957323,0.49699888,0.04039757,0.42219,0.564401,0.14221096,5,11,0.04455602,0.016055388,0.30505237,4.9476495,2,1,train,1
0.51873106,0.51677096,0.051924728,0.439861,0.597491,0.15763003,8,16,0.03707999,0.014705266,0.27940005,5.43556,1,1,train,1
0.5178075,0.51677096,0.05216929,0.439861,0.597491,0.15763003,7,15,0.03707999,0.015612634,0.29664004,5.4169254,1,1,train,1
0.5174335,0.51677096,0.052222956,0.439861,0.597491,0.15763003,6,14,0.03707999,0.016142635,0.30671006,5.4092937,1,1,train,1
0.51721996,0.51463604,0.05224143,0.439861,0.597491,0.15763003,5,13,0.03707999,0.016175266,0.30733007,5.4049144,1,1,train,1
0.5169069,0.511506,0.052250974,0.439861,0.597491,0.15763003,4,12,0.03707999,0.015813163,0.3004501,5.3984604,1,1,train,1
0.4929482,0.4935665,0.037213404,0.423987,0.557501,0.13351402,7,13,0.039825976,0.014503362,0.27556387,4.8876557,1,2,train,1
0.49321204,0.4935665,0.03725055,0.423987,0.557501,0.13351402,8,14,0.039825976,0.01440616,0.27371705,4.8929143,1,2,train,1
0.49156317,0.49082,0.037271637,0.423987,0.557501,0.13351402,7,13,0.039825976,0.014918201,0.2834458,4.8604712,2,1,train,1
0.49242467,0.49234957,0.037176922,0.423987,0.557501,0.13351402,7,13,0.039825976,0.014011405,0.2662167,4.8772836,2,1,train,1
0.4925713,0.49308765,0.037179608,0.423987,0.557501,0.13351402,7,13,0.039825976,0.014106647,0.2680263,4.880177,1,2,train,1
0.49239984,0.4925745,0.03725966,0.423987,0.557501,0.13351402,7,13,0.039825976,0.0147366505,0.27999637,4.8769174,2,2,train,1
0.49315363,0.4935665,0.037238654,0.423987,0.557501,0.13351402,8,14,0.039825976,0.014399991,0.27359983,4.891744,2,2,train,1
0.4932378,0.4935665,0.03725557,0.423987,0.557501,0.13351402,6,12,0.039825976,0.014620508,0.27778965,4.8934293,2,1,train,1
0.4921047,0.49092054,0.03719107,0.423987,0.557501,0.13351402,6,12,0.039825976,0.014264512,0.27102572,4.871005,2,2,train,1
0.49239746,0.4925745,0.037191715,0.423987,0.557501,0.13351402,8,14,0.039825976,0.014443443,0.27442542,4.87677,2,2,train,1
0.510565,0.510504,0.0010138319,0.507147,0.512793,0.0056459904,19,17,0.0045779943,0.00070678873,0.013428986,5.2135525,4,4,train,0
0.4997477,0.4997855,0.0007315566,0.498413,0.501007,0.002594024,7,17,0.0015260279,0.0005540644,0.010527223,4.994966,5,7,train,0
0.49977818,0.499786,0.00045896825,0.49887,0.500701,0.0018310249,16,1,0.0010680258,0.0005140022,0.009766042,4.9955683,7,7,train,0
0.5049205,0.504821,0.00080629985,0.504058,0.507873,0.0038149953,0,10,0.002440989,0.0006101006,0.011591911,5.098907,6,7,train,0
0.5112744,0.511267,0.00018985779,0.510962,0.511725,0.00076299906,18,12,0.0004580021,0.00023278751,0.0044229627,5.228031,6,5,train,0
0.5112655,0.5118487,0.109387375,0.312001,0.718031,0.40603,8,13,0.14374,0.042883087,0.8147787,5.4671607,3,3,train,1
0.5144783,0.51742065,0.10923563,0.312001,0.718031,0.40603,10,15,0.14374,0.044167526,0.839183,5.5324073,3,3,train,1
0.51293665,0.51312494,0.10934611,0.312001,0.718031,0.40603,9,14,0.14374,0.044590488,0.8472193,5.501211,4,3,train,1
0.51084965,0.50498796,0.10938691,0.312001,0.718031,0.40603,6,11,0.14374,0.043668143,0.82969475,5.458656,2,3,train,1
0.51235664,0.5122823,0.10922315,0.312001,0.718031,0.40603,8,13,0.14374,0.042534776,0.8081607,5.488781,3,2,train,1
0.5098778,0.5012815,0.10945112,0.312001,0.718031,0.40603,6,11,0.14374,0.043722328,0.83072424,5.439098,2,2,train,1
0.5104345,0.5047213,0.109364256,0.312001,0.718031,0.40603,7,12,0.14374,0.04335617,0.82376724,5.45008,2,1,train,1
0.513419,0.5131463,0.109193504,0.312001,0.718031,0.40603,10,15,0.14374,0.043101817,0.81893456,5.510445,2,2,train,1
0.51337665,0.5153388,0.10924596,0.312001,0.718031,0.40603,8,13,0.14374,0.043089665,0.81870365,5.509806,2,2,train,1
0.5114993,0.5096096,0.10930427,0.312001,0.718031,0.40603,7,12,0.14374,0.04354939,0.8274384,5.471579,2,3,train,1
0.51092356,0.510809,0.0003337909,0.510504,0.51203,0.0015259981,18,16,0.0015259981,0.00035315438,0.0067099333,5.220861,6,6,train,0
0.5107939,0.510809,0.00011708372,0.510504,0.511114,0.00060999393,17,0,0.0004569888,0.00011226064,0.0021329522,5.2182074,5,4,train,0
0.5085279,0.510046,0.0041897655,0.491583,0.510809,0.019226015,7,3,0.01739502,0.0026422113,0.050202012,5.1723623,7,5,train,0
0.5106718,0.510962,0.0011085821,0.506537,0.511725,0.0051879883,3,2,0.0051879883,0.0007789449,0.0147999525,5.2157383,6,6,train,0
0.49274158,0.48843172,0.03580323,0.428903,0.563638,0.13473496,4,9,0.048065007,0.015572703,0.29588136,4.881522,4,4,train,1
0.49649245,0.49592188,0.03584088,0.428903,0.563638,0.13473496,9,14,0.048065007,0.015305565,0.29080573,4.955786,4,3,train,1
0.4943095,0.4898924,0.03591089,0.428903,0.563638,0.13473496,5,10,0.048065007,0.016246611,0.3086856,4.912629,3,3,train,1
0.49456573,0.49499834,0.03571366,0.428903,0.563638,0.13473496,4,9,0.048065007,0.016394742,0.3115001,4.9174156,4,4,train,1
0.49427623,0.49364948,0.035712704,0.428903,0.563638,0.13473496,5,10,0.048065007,0.016658725,0.31651577,4.9116874,4,4,train,1
0.49707374,0.49831364,0.035763334,0.428903,0.563638,0.13473496,9,14,0.048065007,0.015840152,0.3009629,4.9672265,3,3,train,1
0.49441123,0.49330193,0.03581257,0.428903,0.563638,0.13473496,5,10,0.048065007,0.015453252,0.2936118,4.9144998,2,3,train,1
0.49599233,0.49788547,0.03563047,0.428903,0.563638,0.13473496,7,12,0.048065007,0.014828545,0.28174236,4.9455585,3,3,train,1
0.4970603,0.499725,0.035707496,0.428903,0.563638,0.13473496,9,14,0.048065007,0.016014865,0.30428243,4.9668803,2,3,train,1
0.49551958,0.49518645,0.035683624,0.428903,0.563638,0.13473496,5,10,0.048065007,0.015866375,0.3014611,4.93626,3,3,train,1
0.50276405,0.5016258,0.03077603,0.439093,0.565283,0.12619,4,8,0.049133003,0.01645667,0.31267673,5.0743775,5,4,train,1
0.50467885,0.5042752,0.030667538,0.439093,0.565283,0.12619,12,16,0.049133003,0.015755583,0.29935607,5.1128225,3,3,train,1
0.50463104,0.50483364,0.030731775,0.439093,0.565283,0.12619,12,16,0.049133003,0.016646195,0.3162777,5.1119375,3,4,train,1
0.5045283,0.5034734,0.030855784,0.439093,0.565283,0.12619,10,14,0.049133003,0.016140195,0.3066637,5.1100173,5,5,train,1
0.5032104,0.5011196,0.030562295,0.439093,0.565283,0.12619,7,11,0.049133003,0.01479949,0.2811903,5.0830956,3,3,train,1
0.504975,0.50517386,0.030634858,0.439093,0.565283,0.12619,11,15,0.049133003,0.015152442,0.2878964,5.1187644,3,4,train,1
0.5021523,0.4970808,0.031088054,0.439093,0.565283,0.12619,5,9,0.049133003,0.014846481,0.28208315,5.0624676,3,4,train,1
0.5024987,0.5008613,0.030788004,0.439093,0.565283,0.12619,5,9,0.049133003,0.016243016,0.30861732,5.0690565,4,3,train,1
0.50324744,0.50171334,0.030747028,0.439093,0.565283,0.12619,7,11,0.049133003,0.01471964,0.27967316,5.0840673,4,5,train,1
0.5040285,0.5017866,0.030818896,0.439093,0.565283,0.12619,11,15,0.049133003,0.0156819,0.2979561,5.0998898,4,4,train,1
0.51010716,0.5108855,0.07583744,0.367376,0.652563,0.28518698,7,14,0.091858,0.030445369,0.578462,5.3192124,2,3,train,1
0.50984013,0.5106565,0.075826705,0.367376,0.652563,0.28518698,6,13,0.091858,0.03020447,0.5738849,5.313732,3,2,train,1
0.5054008,0.5074985,0.051745966,0.424796,0.583182,0.15838599,8,16,0.045623988,0.015250736,0.289764,5.162151,1,1,train,1
0.5047599,0.5074985,0.051821783,0.424796,0.583182,0.15838599,7,15,0.045623988,0.015965475,0.303344,5.14936,1,1,train,1
0.50450045,0.5074985,0.051828045,0.424796,0.583182,0.15838599,6,14,0.045623988,0.016367054,0.310974,5.1441374,1,1,train,1
0.50437844,0.506278,0.051825874,0.424796,0.583182,0.15838599,5,13,0.045623988,0.016447369,0.3125,5.1416698,1,1,train,1
0.50422585,0.5047525,0.051818263,0.424796,0.583182,0.15838599,4,12,0.045623988,0.01616626,0.30715895,5.138576,1,1,train,1
0.499435,0.499481,0.00050393224,0.49826,0.500396,0.0021360219,0,15,0.0010680258,0.0004899549,0.009309143,4.98871,6,6,train,0
0.5068356,0.506805,0.00039080437,0.506042,0.507415,0.001372993,6,14,0.0009160042,0.00049799995,0.009461999,5.1376476,8,7,train,0
0.5073546,0.5070741,0.035528965,0.441687,0.563299,0.12161201,7,13,0.03036499,0.013032436,0.24761629,5.1734204,2,1,train,1
0.50808156,0.51190263,0.035550043,0.441687,0.563299,0.12161201,8,14,0.03036499,0.01267244,0.24077636,5.1882114,2,2,train,1
0.5076199,0.5088391,0.035526846,0.441687,0.563299,0.12161201,6,12,0.03036499,0.012982428,0.24666613,5.1788025,2,1,train,1
0.5078585,0.50943553,0.03558287,0.441687,0.563299,0.12161201,7,13,0.03036499,0.013038578,0.247733,5.183728,2,2,train,1
0.5070754,0.5056975,0.035554897,0.441687,0.563299,0.12161201,7,13,0.03036499,0.013326388,0.25320137,5.167792,2,1,train,1
0.5078755,0.50943553,0.035553314,0.441687,0.563299,0.12161201,6,12,0.03036499,0.013398801,0.25457722,5.1840305,2,1,train,1
0.50789225,0.50998336,0.035537004,0.441687,0.563299,0.12161201,6,12,0.03036499,0.013088923,0.24868953,5.184348,2,1,train,1
0.50690186,0.5056975,0.03559133,0.441687,0.563299,0.12161201,6,12,0.03036499,0.013419408,0.25496876,5.164325,2,2,train,1
0.5075041,0.509034,0.035541065,0.441687,0.563299,0.12161201,6,12,0.03036499,0.0131658595,0.25015134,5.176472,2,1,train,1
0.50668097,0.5056975,0.0356232,0.441687,0.563299,0.12161201,6,12,0.03036499,0.013067949,0.24829102,5.1598935,2,1,train,1
0.5104581,0.510504,0.00028999787,0.509588,0.510962,0.0013740063,16,12,0.0009160042,0.0002893178,0.0054970384,5.2113523,5,7,train,0
0.5024942,0.503448,0.0049452083,0.4859,0.513519,0.027618974,10,7,0.01937899,0.004858839,0.09231794,5.050499,5,6,train,0
0.5108015,0.510809,0.00016343794,0.510504,0.511267,0.00076299906,10,2,0.00060999393,0.00016868429,0.0032050014,5.2183647,3,5,train,0
0.50420344,0.504211,0.00034943488,0.503601,0.504974,0.001372993,4,8,0.0009149909,0.00036931352,0.007016957,5.084424,6,4,train,0
0.5100461,0.51302147,0.05248515,0.423529,0.580847,0.15731803,9,18,0.03356898,0.012399791,0.23559603,5.258036,1,1,train,1
0.50664353,0.51302147,0.05493903,0.423529,0.580847,0.15731803,8,17,0.03356898,0.012961896,0.24627602,5.1941185,1,1,train,1
0.5042173,0.51302147,0.0560646,0.423529,0.580847,0.15731803,7,16,0.03356898,0.01390958,0.26428202,5.1475673,1,1,train,1
0.50261515,0.51302147,0.05645374,0.423529,0.580847,0.15731803,6,15,0.03356898,0.014688581,0.27908304,5.1161804,1,1,train,1
0.5015089,0.50195897,0.056528963,0.423529,0.580847,0.15731803,5,14,0.03356898,0.015001792,0.28503406,5.094134,1,1,train,1
0.5004407,0.491278,0.056432437,0.423529,0.580847,0.15731803,4,13,0.03356898,0.014809054,0.28137204,5.072512,1,1,train,1
0.48675364,0.48189402,0.05855502,0.402929,0.57337,0.17044097,4,13,0.03936699,0.017065788,0.32424998,4.807157,1,1,train,1
0.48605174,0.48189402,0.058465414,0.402929,0.57337,0.17044097,3,12,0.03936699,0.016495576,0.31341594,4.793291,1,1,train,1
0.4847166,0.48189402,0.058108456,0.402929,0.57337,0.17044097,2,11,0.03936699,0.015331102,0.29129094,4.7665367,1,1,train,1
0.5119899,0.5186366,0.069155015,0.386611,0.625721,0.23910996,10,15,0.071259975,0.026156759,0.49697843,5.338322,3,3,train,1
0.5094749,0.514171,0.06942127,0.386611,0.625721,0.23910996,8,13,0.071259975,0.026621819,0.50581455,5.28768,3,3,train,1
0.50973123,0.51557696,0.06943482,0.386611,0.625721,0.23910996,8,13,0.071259975,0.02575299,0.4893068,5.2929435,2,3,train,1
0.50766414,0.49795398,0.069434665,0.386611,0.625721,0.23910996,6,11,0.071259975,0.025156744,0.47797814,5.250881,2,2,train,1
0.5115916,0.5162191,0.069094285,0.386611,0.625721,0.23910996,10,15,0.071259975,0.02506558,0.47624603,5.330002,2,3,train,1
0.50838387,0.5035854,0.069232285,0.386611,0.625721,0.23910996,7,12,0.071259975,0.024647126,0.4682954,5.264946,2,2,train,1
0.50939167,0.514827,0.06937428,0.386611,0.625721,0.23910996,8,13,0.071259975,0.025342211,0.48150203,5.285853,2,2,train,1
0.5098772,0.5154469,0.069268,0.386611,0.625721,0.23910996,9,14,0.071259975,0.024689043,0.46909183,5.295457,3,2,train,1
0.506246,0.5008901,0.069461025,0.386611,0.625721,0.23910996,5,10,0.071259975,0.027597565,0.52435374,5.2221956,3,3,train,1
0.5122178,0.52194226,0.06934347,0.386611,0.625721,0.23910996,9,14,0.071259975,0.026773723,0.5087007,5.3435125,2,3,train,1
0.50171614,0.50177,0.00076329254,0.499481,0.503295,0.0038140118,15,18,0.002745986,0.00092342024,0.017544985,5.034394,7,9,train,0
0.50493574,0.505126,0.0013413526,0.500549,0.506805,0.0062559843,11,19,0.0022889972,0.001011839,0.019224942,5.0992365,7,7,train,0
0.5087035,0.509207,0.0013737677,0.505469,0.510657,0.0051879883,18,14,0.0047309995,0.0012849444,0.024413943,5.1756215,7,6,train,0
0.50388294,0.50588953,0.007408047,0.487579,0.520996,0.033416986,11,19,0.020141989,0.0066255205,0.12588489,5.0790567,6,5,train,0
0.49539012,0.4954545,0.039521817,0.425035,0.565111,0.14007598,8,14,0.043639988,0.015028773,0.2855467,4.9394674,1,2,train,1
0.4957517,0.4954545,0.039573364,0.425035,0.565111,0.14007598,6,12,0.043639988,0.015229346,0.28935757,4.9467163,1,2,train,1
0.49496597,0.4952255,0.039494418,0.425035,0.565111,0.14007598,8,14,0.043639988,0.014884266,0.28280106,4.9310226,2,2,train,1
0.49434084,0.4946915,0.039534405,0.425035,0.565111,0.14007598,6,12,0.043639988,0.015293651,0.29057938,4.9187164,2,3,train,1
0.49432674,0.4946915,0.039555345,0.425035,0.565111,0.14007598,6,12,0.043639988,0.015686236,0.29803848,4.91847,2,3,train,1
0.49513906,0.4952255,0.039532106,0.425035,0.565111,0.14007598,8,14,0.043639988,0.015453676,0.29361984,4.9345093,2,3,train,1
0.49529973,0.4952255,0.039541207,0.425035,0.565111,0.14007598,6,12,0.043639988,0.015749894,0.29924798,4.9377055,2,2,train,1
0.494104,0.4946915,0.039569557,0.425035,0.565111,0.14007598,7,13,0.043639988,0.015580322,0.2960261,4.91409,3,2,train,1
0.4947459,0.4952255,0.039502997,0.425035,0.565111,0.14007598,8,14,0.043639988,0.01498158,0.28465003,4.92668,2,2,train,1
0.49449268,0.4946915,0.039526608,0.425035,0.565111,0.14007598,8,14,0.043639988,0.015155776,0.28795975,4.9217076,2,2,train,1
0.5106107,0.510809,0.00060095004,0.508215,0.511114,0.002898991,5,19,0.0019840002,0.00024884,0.0047279596,5.214473,5,4,train,0
0.51094645,0.510962,0.00020396862,0.510657,0.511267,0.00060999393,3,6,0.00060999393,0.0002647858,0.00503093,5.2213273,6,7,train,0
0.51031315,0.510351,0.00019216734,0.509894,0.510809,0.0009149909,12,3,0.00060999393,0.0002007359,0.003813982,5.2083893,6,5,train,0
0.5005074,0.4981143,0.02773918,0.443724,0.556639,0.11291501,4,8,0.047302008,0.0146634355,0.27860528,5.0255423,3,3,train,1
0.50115,0.5007322,0.027754163,0.443724,0.556639,0.11291501,12,16,0.047302008,0.014353541,0.27271727,5.0384326,4,4,train,1
0.50093514,0.49993658,0.027682204,0.443724,0.556639,0.11291501,10,14,0.047302008,0.013410038,0.25479072,5.034046,5,4,train,1
0.50110924,0.49937373,0.027907124,0.443724,0.556639,0.11291501,10,14,0.047302008,0.014782866,0.28087446,5.0377865,3,3,train,1
0.5038072,0.50811505,0.027930772,0.443724,0.556639,0.11291501,12,16,0.047302008,0.014372422,0.27307603,5.0920362,3,4,train,1
0.49969682,0.49856713,0.02778833,0.443724,0.556639,0.11291501,6,10,0.047302008,0.014577436,0.27697128,5.0093822,3,4,train,1
0.4988142,0.49578732,0.027712565,0.443724,0.556639,0.11291501,9,13,0.047302008,0.013097145,0.24884576,4.991672,3,3,train,1
0.49952704,0.4993217,0.027908083,0.443724,0.556639,0.11291501,6,10,0.047302008,0.013310643,0.2529022,5.0061226,2,3,train,1
0.5017577,0.5036727,0.02761394,0.443724,0.556639,0.11291501,7,11,0.047302008,0.012954496,0.24613541,5.0504656,4,3,train,1
0.50291836,0.5065323,0.027990568,0.443724,0.556639,0.11291501,12,16,0.047302008,0.016036516,0.3046938,5.074207,4,4,train,1
0.49899238,0.498794,0.00069513696,0.497955,0.500549,0.002594024,19,13,0.002289027,0.00075474224,0.014340103,4.979878,4,5,train,0
0.49995375,0.499938,0.0006308203,0.498413,0.501007,0.002594024,9,19,0.0015260279,0.00056211726,0.0106802285,4.999082,6,6,train,0
0.49949598,0.499481,0.00052389415,0.49826,0.500396,0.0021360219,1,16,0.0010680258,0.0004738491,0.009003133,4.98993,6,6,train,0
0.5065227,0.506652,0.00046606065,0.505584,0.507415,0.0018309951,16,0,0.0010690093,0.00040957803,0.0077819824,5.1313095,7,6,train,0
0.5001062,0.500091,0.00039470027,0.499328,0.500701,0.0013730228,5,14,0.0010680258,0.0005703255,0.010836184,5.002129,7,7,train,0
0.5001292,0.500091,0.0004942924,0.49887,0.501007,0.0021370351,15,0,0.001221031,0.00045790328,0.008700162,5.0025883,5,5,train,0
0.4998775,0.50024354,0.0068661664,0.475372,0.514129,0.038756996,6,16,0.02471903,0.0059670084,0.11337316,4.998493,6,6,train,0
0.5110457,0.510962,0.00052089844,0.510351,0.51203,0.0016790032,11,5,0.0015259981,0.0005301582,0.010073006,5.2233586,6,6,train,0
0.4950633,0.4978025,0.008588587,0.471405,0.505737,0.034332007,19,13,0.020751,0.00479442,0.09109399,4.9032283,4,5,train,0
0.5052484,0.505126,0.00046182555,0.504364,0.506195,0.0018309951,16,1,0.001067996,0.0004496292,0.008542955,5.1055245,7,8,train,0
0.51109123,0.511114,0.00021713872,0.510657,0.511419,0.0007619858,1,15,0.0004580021,0.00020868213,0.0039649606,5.2242866,5,4,train,0
0.5106489,0.510809,0.0005071154,0.509131,0.51203,0.002898991,13,17,0.0018309951,0.00050589285,0.009611964,5.215251,6,5,train,0
0.5048824,0.506042,0.006424047,0.488952,0.520996,0.032043964,12,4,0.020141989,0.0063765724,0.121154875,5.098949,6,6,train,0
0.4987634,0.498718,0.000941996,0.496276,0.500549,0.004273027,16,18,0.002747029,0.000987743,0.018767118,4.9753175,5,5,train,0
0.5104733,0.510351,0.00022943087,0.510046,0.510809,0.00076299906,6,0,0.0004580021,0.00016863096,0.003203988,5.211661,6,5,train,0
0.50976396,0.509894,0.0018981408,0.505316,0.515082,0.009765983,1,12,0.0064089894,0.0020397839,0.038755894,5.197258,6,6,train,0
0.49918312,0.4991755,0.000694868,0.497955,0.500549,0.002594024,2,19,0.0013730228,0.0006342201,0.012050182,4.983685,5,6,train,0
0.50985533,0.510809,0.0037830924,0.494787,0.515844,0.02105698,15,8,0.016326994,0.0029633108,0.056302905,5.199335,6,5,train,0
0.5103055,0.510351,0.00030556787,0.509588,0.510809,0.0012210011,3,14,0.0009149909,0.00030510363,0.005796969,5.2082357,6,7,train,0
0.5002893,0.500396,0.0005525367,0.499328,0.501464,0.0021360219,1,13,0.0015260279,0.00054616365,0.010377109,5.0057955,7,5,train,0
0.5005335,0.500549,0.00040641252,0.499633,0.501312,0.0016790032,15,18,0.0010690093,0.0005061595,0.009617031,5.0106807,8,8,train,0
0.49939853,0.4993985,0.044805303,0.418799,0.576727,0.15792796,9,14,0.048828036,0.017477736,0.33207697,5.0281286,1,2,train,1
0.49570674,0.48945853,0.045098875,0.418799,0.576727,0.15792796,5,10,0.048828036,0.016850958,0.3201682,4.955182,2,1,train,1
0.49621266,0.49312603,0.045104563,0.418799,0.576727,0.15792796,5,10,0.048828036,0.0176269,0.3349111,4.9652286,3,2,train,1
0.49853176,0.50027156,0.044769343,0.418799,0.576727,0.15792796,9,14,0.048828036,0.016342271,0.31050315,5.0107636,2,2,train,1
0.4986214,0.50218004,0.0451461,0.418799,0.576727,0.15792796,8,13,0.048828036,0.017638126,0.3351244,5.0132303,3,3,train,1
0.4967752,0.4941663,0.044962782,0.418799,0.576727,0.15792796,7,12,0.048828036,0.017227095,0.3273148,4.976145,2,2,train,1
0.49780354,0.49588585,0.04500497,0.418799,0.576727,0.15792796,9,14,0.048828036,0.0178097,0.3383843,4.9966755,2,2,train,1
0.49725318,0.49312842,0.045104634,0.418799,0.576727,0.15792796,7,12,0.048828036,0.01792192,0.3405165,4.9859033,3,3,train,1
0.49736434,0.4967436,0.044951938,0.418799,0.576727,0.15792796,7,12,0.048828036,0.017635923,0.33508253,4.9878387,2,3,train,1
0.49758834,0.49544924,0.0451041,0.418799,0.576727,0.15792796,7,12,0.048828036,0.017376788,0.33015898,4.9925704,4,3,train,1
0.518943,0.51913595,0.050448883,0.425521,0.611831,0.18631002,6,11,0.06577,0.021833373,0.41483408,5.4369392,3,2,train,1
0.5189397,0.51913595,0.050568406,0.425521,0.611831,0.18631002,6,11,0.06577,0.021125568,0.40138578,5.4371114,2,3,train,1
0.5199051,0.5199728,0.050356537,0.425521,0.611831,0.18631002,8,13,0.06577,0.020657107,0.39248502,5.4567413,3,2,train,1
0.5202578,0.5207479,0.05047883,0.425521,0.611831,0.18631002,10,15,0.06577,0.022989346,0.43679756,5.4643254,3,3,train,1
0.5200283,0.52084607,0.05040841,0.425521,0.611831,0.18631002,6,11,0.06577,0.020696806,0.39323932,5.459409,2,3,train,1
0.51921684,0.51774645,0.05037425,0.425521,0.611831,0.18631002,7,12,0.06577,0.019847855,0.37710923,5.442473,3,2,train,1
0.5196837,0.5193355,0.05044559,0.425521,0.611831,0.18631002,9,14,0.06577,0.021277094,0.4042648,5.4523187,3,3,train,1
0.5190123,0.51913595,0.05050281,0.425521,0.611831,0.18631002,6,11,0.06577,0.020948134,0.39801455,5.438487,2,2,train,1
0.5195502,0.5217037,0.050501607,0.425521,0.611831,0.18631002,5,10,0.06577,0.022503037,0.4275577,5.449658,3,2,train,1
0.519239,0.5194699,0.050424796,0.425521,0.611831,0.18631002,5,10,0.06577,0.021170074,0.4022314,5.443036,2,2,train,1
0.49514613,0.4952744,0.04150784,0.417425,0.566961,0.14953598,5,11,0.045929015,0.016466176,0.31285736,4.937852,2,2,train,1
0.49750772,0.50347006,0.041658416,0.417425,0.566961,0.14953598,9,15,0.045929015,0.016427565,0.31212375,4.984987,3,3,train,1
0.495562,0.4963038,0.04148175,0.417425,0.566961,0.14953598,6,12,0.045929015,0.016249508,0.30874065,4.9460487,2,2,train,1
0.49747872,0.50179386,0.04169003,0.417425,0.566961,0.14953598,9,15,0.045929015,0.016865944,0.32045296,4.9844623,2,3,train,1
0.49537754,0.49755877,0.041503415,0.417425,0.566961,0.14953598,5,11,0.045929015,0.016472107,0.31297004,4.9424286,2,2,train,1
0.49556845,0.49494,0.041611604,0.417425,0.566961,0.14953598,7,13,0.045929015,0.01745568,0.33165792,4.9463916,3,3,train,1
0.49615255,0.498831,0.041641675,0.417425,0.566961,0.14953598,8,14,0.045929015,0.017339101,0.32944292,4.958027,3,2,train,1
0.49726653,0.5032096,0.04160801,0.417425,0.566961,0.14953598,8,14,0.045929015,0.016430676,0.31218284,4.9801035,2,3,train,1
0.49703628,0.50083673,0.04162153,0.417425,0.566961,0.14953598,9,15,0.045929015,0.017046656,0.32388648,4.9755483,2,3,train,1
0.49680296,0.5008502,0.04154949,0.417425,0.566961,0.14953598,8,14,0.045929015,0.016274769,0.3092206,4.97079,2,2,train,1
0.5088332,0.5100465,0.0057940576,0.485632,0.515082,0.02945,11,9,0.025940001,0.00539673,0.10253787,5.1788964,6,6,train,0
0.5004268,0.50115955,0.0069621676,0.475372,0.514129,0.038756996,3,13,0.02471903,0.0058064274,0.11032212,5.009509,6,6,train,0
0.5005184,0.500549,0.0037818137,0.493072,0.510772,0.017699987,12,11,0.017699987,0.0042725285,0.08117804,5.0106587,6,7,train,0
0.5052639,0.505432,0.00055202405,0.503906,0.506042,0.002135992,6,18,0.0018309951,0.00065041846,0.01235795,5.105837,6,7,train,0
0.51115996,0.511114,0.000264578,0.510809,0.511877,0.001067996,18,3,0.00060999393,0.00024878664,0.0047269464,5.2256904,7,5,train,0
0.4894043,0.49171478,0.042624522,0.413305,0.563147,0.149842,5,11,0.052185,0.016267067,0.30907425,4.8266683,3,3,train,1
0.49121705,0.4983325,0.04286641,0.413305,0.563147,0.149842,8,14,0.052185,0.016521495,0.3139084,4.8626347,3,2,train,1
0.4911426,0.49654198,0.042906594,0.413305,0.563147,0.149842,6,12,0.052185,0.016287507,0.30946264,4.861242,3,3,train,1
0.49089232,0.49435294,0.042850465,0.413305,0.563147,0.149842,7,13,0.052185,0.017104628,0.32498792,4.8562284,3,3,train,1
0.48991513,0.49395025,0.042742126,0.413305,0.563147,0.149842,4,10,0.052185,0.01696559,0.3223462,4.836876,3,3,train,1
0.4894123,0.49252743,0.042657316,0.413305,0.563147,0.149842,3,9,0.052185,0.016757801,0.31839824,4.826881,4,3,train,1
0.48859572,0.4899155,0.042684488,0.413305,0.563147,0.149842,5,11,0.052185,0.017128702,0.32544535,4.810954,2,3,train,1
0.49008584,0.49397027,0.042921435,0.413305,0.563147,0.149842,6,12,0.052185,0.017386947,0.33035198,4.8405275,2,3,train,1
0.4891328,0.49272317,0.042683803,0.413305,0.563147,0.149842,3,9,0.052185,0.017494857,0.3324023,4.8214545,3,3,train,1
0.49165267,0.4971843,0.043031443,0.413305,0.563147,0.149842,7,13,0.052185,0.018428825,0.35014766,4.871481,3,4,train,1
0.5106183,0.511572,0.0043703867,0.502417,0.519964,0.017546952,7,17,0.009307981,0.004087674,0.077665806,5.215003,6,6,train,0
0.49813795,0.4983365,0.0021349778,0.493988,0.504211,0.010223001,3,0,0.009766012,0.0019597914,0.037236035,4.962919,6,6,train,0
0.51106083,0.511267,0.0029295587,0.499518,0.516455,0.016936988,1,3,0.0143429935,0.0019513651,0.037075937,5.223834,5,5,train,0
0.50915253,0.51097095,0.08860924,0.346791,0.666921,0.32013002,7,13,0.10116997,0.03390193,0.64413667,5.341758,2,2,train,1
0.5097171,0.51097095,0.08861198,0.346791,0.666921,0.32013002,7,13,0.10116997,0.03388261,0.6437696,5.353273,2,2,train,1
0.5098833,0.511276,0.088610396,0.346791,0.666921,0.32013002,6,12,0.10116997,0.03401923,0.6463654,5.3566546,1,1,train,1
0.50934756,0.51097095,0.08861059,0.346791,0.666921,0.32013002,6,12,0.10116997,0.03447982,0.65511656,5.3457355,2,1,train,1
0.5104414,0.511276,0.08865117,0.346791,0.666921,0.32013002,8,14,0.10116997,0.03401121,0.646213,5.36819,1,2,train,1
0.5094171,0.51089215,0.08859363,0.346791,0.666921,0.32013002,6,12,0.10116997,0.033689596,0.6401023,5.347091,1,1,train,1
0.50907344,0.5101508,0.08860258,0.346791,0.666921,0.32013002,8,14,0.10116997,0.034270015,0.65113026,5.340124,1,2,train,1
0.5087082,0.509446,0.08861502,0.346791,0.666921,0.32013002,7,13,0.10116997,0.03425716,0.650886,5.3327336,2,1,train,1
0.50860196,0.509446,0.08862311,0.346791,0.666921,0.32013002,6,12,0.10116997,0.03400269,0.64605117,5.330599,2,2,train,1
0.509303,0.51097095,0.0885996,0.346791,0.666921,0.32013002,8,14,0.10116997,0.034202743,0.6498521,5.3447886,1,2,train,1
0.5100156,0.510046,0.00027960635,0.509436,0.510504,0.001067996,0,15,0.0004569888,0.00017652386,0.0033539534,5.2023206,4,5,train,0
0.49863395,0.4986415,0.00048862613,0.497802,0.499786,0.0019840002,16,1,0.001067996,0.00053026486,0.010075033,4.972721,7,7,train,0
0.5037991,0.5038295,0.0003740304,0.503143,0.504669,0.0015259981,13,16,0.0009160042,0.0005299449,0.010068953,5.076272,7,8,train,0
0.49963346,0.500625,0.004371779,0.481781,0.504669,0.022888005,17,19,0.01464799,0.002312847,0.04394409,4.9930525,6,5,train,0
0.5200027,0.5184045,0.054169584,0.421711,0.616561,0.19485,10,15,0.06607002,0.02142715,0.40711588,5.4667435,3,4,train,1
0.5194701,0.5202735,0.05417959,0.421711,0.616561,0.19485,7,12,0.06607002,0.021999497,0.41799045,5.4556923,3,3,train,1
0.51974595,0.5199035,0.05415141,0.421711,0.616561,0.19485,10,15,0.06607002,0.021643566,0.41122776,5.4613647,3,3,train,1
0.51779866,0.5126637,0.054302398,0.421711,0.616561,0.19485,5,10,0.06607002,0.021258125,0.40390438,5.421283,3,2,train,1
0.5202583,0.5208802,0.05419719,0.421711,0.616561,0.19485,9,14,0.06607002,0.02241767,0.42593575,5.47212,3,3,train,1
0.51907,0.5167857,0.0541377,0.421711,0.616561,0.19485,5,10,0.06607002,0.02103757,0.3997138,5.4472914,2,2,train,1
0.5197529,0.51710343,0.05424504,0.421711,0.616561,0.19485,10,15,0.06607002,0.02321359,0.44105822,5.461713,2,3,train,1
0.51687396,0.5103708,0.054421566,0.421711,0.616561,0.19485,5,10,0.06607002,0.021661753,0.4115733,5.4024076,3,3,train,1
0.518237,0.51572937,0.05427603,0.421711,0.616561,0.19485,5,10,0.06607002,0.021479791,0.40811604,5.430309,2,2,train,1
0.519704,0.5203822,0.054207753,0.421711,0.616561,0.19485,7,12,0.06607002,0.022084204,0.4195999,5.4606137,2,3,train,1
0.49889335,0.498794,0.0005380033,0.498107,0.499786,0.0016790032,11,1,0.001067996,0.0005945281,0.011296034,4.977897,8,8,train,0
0.5140529,0.5163182,0.03416225,0.454211,0.574141,0.11993003,7,12,0.044100016,0.013635796,0.2590801,5.308349,2,3,train,1
0.51475966,0.5156992,0.033955265,0.454211,0.574141,0.11993003,7,12,0.044100016,0.0139901135,0.26581216,5.3226104,2,3,train,1
0.51546127,0.51816726,0.03395252,0.454211,0.574141,0.11993003,10,15,0.044100016,0.013941002,0.26487905,5.33706,3,3,train,1
0.51731646,0.5232499,0.034158725,0.454211,0.574141,0.11993003,9,14,0.044100016,0.013250417,0.25175792,5.3756638,2,3,train,1
0.5148499,0.51479685,0.034090836,0.454211,0.574141,0.11993003,7,12,0.044100016,0.013126847,0.2494101,5.324652,3,3,train,1
0.5135775,0.5119891,0.034079783,0.454211,0.574141,0.11993003,6,11,0.044100016,0.013734428,0.26095414,5.298466,2,2,train,1
0.5148622,0.51719177,0.033980023,0.454211,0.574141,0.11993003,8,13,0.044100016,0.013340388,0.25346738,5.324754,2,3,train,1
0.5155465,0.5178833,0.033989113,0.454211,0.574141,0.11993003,8,13,0.044100016,0.013476723,0.25605774,5.33887,2,2,train,1
0.5155501,0.51664174,0.033968065,0.454211,0.574141,0.11993003,6,11,0.044100016,0.013266987,0.25207275,5.338915,2,3,train,1
0.5150459,0.51575834,0.034067176,0.454211,0.574141,0.11993003,6,11,0.044100016,0.013624822,0.25887161,5.328656,3,3,train,1
0.51308644,0.510056,0.05379291,0.431471,0.593831,0.16236001,8,16,0.038600028,0.014833686,0.28184003,5.3230286,1,1,train,1
0.51192653,0.510056,0.054130953,0.431471,0.593831,0.16236001,7,15,0.038600028,0.015869474,0.30152002,5.299978,1,1,train,1
0.5114075,0.510056,0.054212157,0.431471,0.593831,0.16236001,6,14,0.038600028,0.016528422,0.31404004,5.2895317,1,1,train,1
0.51115596,0.507541,0.054235887,0.431471,0.593831,0.16236001,5,13,0.038600028,0.016681056,0.31694007,5.2844396,1,1,train,1
0.5108584,0.504566,0.05424988,0.431471,0.593831,0.16236001,4,12,0.038600028,0.01641579,0.31190002,5.27839,1,1,train,1
0.51083976,0.510809,0.00016420845,0.510504,0.511114,0.00060999393,3,11,0.00060999393,0.00017652386,0.0033539534,5.2191453,6,4,train,0
0.5103133,0.510199,0.00022566406,0.510046,0.510809,0.00076299906,12,7,0.00076299906,0.00026483912,0.0050319433,5.2083936,7,6,train,0
0.5100691,0.51012254,0.0003173548,0.509283,0.510809,0.0015259981,9,13,0.0009160042,0.0003451548,0.0065579414,5.2034116,6,7,train,0
0.51018345,0.510275,0.0006489871,0.508215,0.511114,0.002898991,0,7,0.0019840002,0.00059426145,0.011290967,5.205753,4,6,train,0
0.5101987,0.510199,0.00023130895,0.509741,0.510504,0.00076299906,0,19,0.0004569888,0.00015236516,0.002894938,5.2060566,4,5,train,0
0.50823796,0.5098175,0.00435384,0.491583,0.512488,0.020905018,0,8,0.01739502,0.0037987358,0.07217598,5.1664968,6,6,train,0
0.5039822,0.5040585,0.00049555296,0.50299,0.504821,0.0018309951,15,0,0.0009149909,0.0003211561,0.006101966,5.0799656,5,6,train,0
0.51046586,0.510504,0.0008790863,0.507147,0.511725,0.0045779943,16,18,0.0045779943,0.00062647305,0.011902988,5.211522,4,5,train,0
0.5107709,0.510809,8.166204e-05,0.510504,0.510809,0.00030499697,0,6,0.00030499697,8.010237e-05,0.001521945,5.217739,4,4,train,0
0.50711775,0.50711,0.0003720807,0.506347,0.507873,0.0015259981,0,10,0.00076299906,0.00042557716,0.008085966,5.14337,8,7,train,0
0.4979548,0.496734,0.004191905,0.492919,0.51123,0.018310994,13,10,0.0140379965,0.0048346897,0.0918591,4.95953,7,6,train,0
0.5115033,0.511419,0.00020191354,0.511114,0.51203,0.0009160042,1,19,0.0006110072,0.00022521458,0.004279077,5.2327127,6,5,train,0
0.5137889,0.51112103,0.05447728,0.427661,0.612441,0.18478,9,16,0.04760003,0.01953183,0.37110475,5.3389354,2,3,train,1
0.51500237,0.51112103,0.053954758,0.427661,0.612441,0.18478,10,17,0.04760003,0.019629523,0.37296095,5.3627706,3,3,train,1
0.5138937,0.50940454,0.054267433,0.427661,0.612441,0.18478,9,16,0.04760003,0.019064689,0.3622291,5.3406343,2,2,train,1
0.5144302,0.51112103,0.054222684,0.427661,0.612441,0.18478,9,16,0.04760003,0.019749809,0.37524638,5.3515725,2,2,train,1
0.5116793,0.506926,0.055194184,0.427661,0.612441,0.18478,8,15,0.04760003,0.019799829,0.37619674,5.297243,3,2,train,1
0.5157047,0.51304364,0.053878278,0.427661,0.612441,0.18478,10,17,0.04760003,0.01923571,0.3654785,5.377084,2,2,train,1
0.5141069,0.51112103,0.0543618,0.427661,0.612441,0.18478,9,16,0.04760003,0.019327322,0.36721912,5.3452215,2,2,train,1
0.51381165,0.51112103,0.054660004,0.427661,0.612441,0.18478,9,16,0.04760003,0.019473853,0.3700032,5.3398023,3,2,train,1
0.51251674,0.5107456,0.054931767,0.427661,0.612441,0.18478,8,15,0.04760003,0.019684907,0.37401325,5.3138185,2,2,train,1
0.5103809,0.506926,0.055696864,0.427661,0.612441,0.18478,7,14,0.04760003,0.019415786,0.36889994,5.271818,2,3,train,1
0.50003,0.500091,0.00055740966,0.49887,0.501312,0.002442032,3,19,0.0010680258,0.00045784994,0.008699149,5.0006065,7,6,train,0
0.5098555,0.510199,0.004033975,0.494024,0.515539,0.021514982,17,16,0.021514982,0.0033811016,0.06424093,5.199377,6,5,train,0
0.5038296,0.503906,0.00038143885,0.503143,0.504669,0.0015259981,12,15,0.0009160042,0.0005379978,0.010221958,5.076887,6,8,train,0
0.5022425,0.5023035,0.00046745987,0.501312,0.50299,0.00167799,1,15,0.0015259981,0.0005541036,0.010527968,5.0449553,7,6,train,0
0.5098175,0.509894,0.00025314995,0.509283,0.510199,0.0009160042,11,0,0.00076299906,0.00020078923,0.0038149953,5.1982775,5,6,train,0
0.5008465,0.500701,0.0012154708,0.49887,0.504669,0.0057990253,19,18,0.0057990253,0.0012849538,0.024414122,5.0169725,6,6,train,0
0.5104963,0.5104275,0.00057793583,0.509131,0.51203,0.002898991,3,7,0.0018309951,0.00069068297,0.013122976,5.212137,6,6,train,0
0.5007778,0.5007775,0.00075906824,0.499176,0.502227,0.0030510128,12,9,0.002289027,0.001011792,0.019224048,5.0155797,7,7,train,0
0.5097028,0.509741,0.00015927962,0.509436,0.510046,0.00060999393,18,5,0.00030601025,0.00015268514,0.0029010177,5.1959395,5,5,train,0
0.50381434,0.5038295,0.0003841626,0.503143,0.504669,0.0015259981,14,17,0.0009160042,0.000521892,0.009915948,5.076579,7,8,train,0
0.48625356,0.488691,0.059767023,0.391651,0.569721,0.17806998,8,16,0.048369974,0.017370526,0.33003998,4.800291,1,2,train,1
0.4852925,0.485566,0.05984515,0.391651,0.569721,0.17806998,7,15,0.048369974,0.018197892,0.34575996,4.7818046,1,2,train,1
0.485094,0.483581,0.059846196,0.391651,0.569721,0.17806998,6,14,0.048369974,0.018671578,0.35475996,4.777955,1,1,train,1
0.48528448,0.485486,0.05984934,0.391651,0.569721,0.17806998,5,13,0.048369974,0.018269999,0.34712997,4.7816596,1,1,train,1
0.4849485,0.485486,0.059800956,0.391651,0.569721,0.17806998,4,12,0.048369974,0.01751526,0.33278996,4.775024,1,1,train,1
0.505012,0.505126,0.0014320367,0.500549,0.507263,0.0067139864,19,17,0.006102979,0.0013250489,0.02517593,5.1007824,6,8,train,0
0.5007244,0.500854,0.00041594973,0.499938,0.501464,0.0015259981,4,1,0.0013740063,0.00057836896,0.01098901,5.0145,7,8,train,0
0.51016814,0.51012254,0.0008734087,0.50852,0.51264,0.0041199923,19,14,0.0018309951,0.0006745238,0.012815952,5.2054467,6,5,train,0
0.5109388,0.510962,0.00015460754,0.510504,0.511114,0.00060999393,10,6,0.0004580021,0.00014452558,0.002745986,5.22117,5,5,train,0
0.48316327,0.4804889,0.02737939,0.429181,0.539351,0.11016998,6,10,0.043489963,0.01393912,0.26484329,4.683927,5,4,train,1
0.48149467,0.47919625,0.027253788,0.429181,0.539351,0.11016998,5,9,0.043489963,0.013416675,0.25491682,4.6515975,4,3,train,1
0.48576522,0.48606592,0.027249401,0.429181,0.539351,0.11016998,10,14,0.043489963,0.015053314,0.28601298,4.7342067,4,4,train,1
0.48421997,0.48513335,0.027225383,0.429181,0.539351,0.11016998,8,12,0.043489963,0.014165632,0.269147,4.7042046,3,4,train,1
0.4833254,0.48211575,0.027142938,0.429181,0.539351,0.11016998,9,13,0.043489963,0.014089931,0.2677087,4.686803,4,3,train,1
0.48169613,0.47830462,0.027240125,0.429181,0.539351,0.11016998,5,9,0.043489963,0.014569086,0.27681264,4.655463,5,4,train,1
0.48535258,0.48540094,0.027204452,0.429181,0.539351,0.11016998,10,14,0.043489963,0.013602516,0.2584478,4.726144,3,2,train,1
0.4846283,0.48572427,0.027119515,0.429181,0.539351,0.11016998,10,14,0.043489963,0.0126823485,0.24096462,4.7120004,3,2,train,1
0.48267752,0.4797722,0.027262295,0.429181,0.539351,0.11016998,8,12,0.043489963,0.013418486,0.25495124,4.6744165,4,3,train,1
0.48319134,0.48140264,0.027123343,0.429181,0.539351,0.11016998,7,11,0.043489963,0.01394105,0.26487994,4.6841908,4,4,train,1
0.49870268,0.498718,0.00050599047,0.497802,0.499786,0.0019840002,15,0,0.001067996,0.0005543702,0.010533035,4.9740915,7,7,train,0
0.50852025,0.50997,0.0041888095,0.491583,0.510809,0.019226015,0,5,0.01739502,0.002987526,0.056762993,5.172208,6,6,train,0
0.5001596,0.5001675,0.00035932267,0.499481,0.500701,0.0012200177,5,8,0.0009150207,0.0004818471,0.009155095,5.0031962,6,6,train,0
0.49989262,0.5001675,0.0019665821,0.495361,0.503295,0.007934004,2,17,0.005798012,0.0018791666,0.035704166,4.9979305,6,7,train,0
0.4965569,0.49078584,0.031697802,0.438834,0.56243,0.12359601,6,10,0.046691984,0.013737468,0.2610119,4.951469,3,3,train,1
0.50060254,0.50158167,0.031127853,0.438834,0.56243,0.12359601,12,16,0.046691984,0.015221092,0.28920075,5.0314364,3,4,train,1
0.4934989,0.4849558,0.032142498,0.438834,0.56243,0.12359601,4,8,0.046691984,0.013801169,0.2622222,4.891487,3,3,train,1
0.49434227,0.48859248,0.03203102,0.438834,0.56243,0.12359601,4,8,0.046691984,0.015954886,0.30314282,4.9080048,5,4,train,1
0.5002704,0.5031133,0.03150511,0.438834,0.56243,0.12359601,10,14,0.046691984,0.016615009,0.31568515,5.025261,4,3,train,1
0.4967153,0.49378237,0.031617325,0.438834,0.56243,0.12359601,5,9,0.046691984,0.015677983,0.29788166,4.9545155,4,5,train,1
0.4969492,0.4918093,0.031633414,0.438834,0.56243,0.12359601,6,10,0.046691984,0.0151833,0.2884827,4.9591837,4,3,train,1
0.5002135,0.49943691,0.03130175,0.438834,0.56243,0.12359601,12,16,0.046691984,0.016473575,0.3129979,5.023867,3,3,train,1
0.49597114,0.49083683,0.031495187,0.438834,0.56243,0.12359601,5,9,0.046691984,0.014105436,0.26800328,4.939587,3,2,train,1
0.49892813,0.5017228,0.031666342,0.438834,0.56243,0.12359601,10,14,0.046691984,0.01439741,0.27355078,4.99864,3,2,train,1
0.5020747,0.50199854,0.00056257896,0.501007,0.50299,0.001982987,13,3,0.0015259981,0.00064241886,0.012205958,5.0415874,8,6,train,0
0.478362,0.47753918,0.04424236,0.389821,0.564831,0.17501003,5,10,0.07659,0.020072328,0.38137424,4.615753,3,4,train,1
0.48027763,0.481216,0.04431919,0.389821,0.564831,0.17501003,10,15,0.07659,0.020101959,0.38193724,4.6526155,3,3,train,1
0.47851962,0.47849202,0.04426263,0.389821,0.564831,0.17501003,5,10,0.07659,0.020181155,0.38344195,4.618805,3,3,train,1
0.47996002,0.481216,0.04432414,0.389821,0.564831,0.17501003,9,14,0.07659,0.020101177,0.38192236,4.6465254,2,2,train,1
0.479206,0.479691,0.044187218,0.389821,0.564831,0.17501003,10,15,0.07659,0.019405752,0.3687093,4.6318173,3,4,train,1
0.47845525,0.47902745,0.044227324,0.389821,0.564831,0.17501003,5,10,0.07659,0.01975888,0.37541872,4.6175094,3,3,train,1
0.4799471,0.48142612,0.044192698,0.389821,0.564831,0.17501003,6,11,0.07659,0.018851215,0.3581731,4.6460433,2,3,train,1
0.4796647,0.481216,0.044254676,0.389821,0.564831,0.17501003,10,15,0.07659,0.019701416,0.37432688,4.6407337,2,3,train,1
0.4782392,0.47878867,0.04424099,0.389821,0.564831,0.17501003,6,11,0.07659,0.020334827,0.38636172,4.6133986,4,4,train,1
0.4794396,0.4802938,0.044205755,0.389821,0.564831,0.17501003,5,10,0.07659,0.0193895,0.3684005,4.636329,2,3,train,1
0.50986314,0.510199,0.0040741106,0.494024,0.515539,0.021514982,14,13,0.021514982,0.0037344694,0.07095492,5.19954,6,5,train,0
0.4996903,0.50006104,0.031117024,0.434867,0.567618,0.13275102,4,8,0.051268995,0.018033175,0.34263033,5.013172,4,4,train,1
0.4996693,0.4998695,0.03114478,0.434867,0.567618,0.13275102,8,12,0.051268995,0.017860865,0.33935642,5.0127892,4,4,train,1
0.4997843,0.4979625,0.0311952,0.434867,0.567618,0.13275102,8,12,0.051268995,0.01633132,0.3102951,5.0151505,4,5,train,1
0.500448,0.5002489,0.030965386,0.434867,0.567618,0.13275102,10,14,0.051268995,0.015636122,0.2970863,5.0281405,3,3,train,1
0.49994212,0.49913466,0.031203061,0.434867,0.567618,0.13275102,9,13,0.051268995,0.017023798,0.32345217,5.0183134,4,4,train,1
0.5009611,0.50197107,0.030981645,0.434867,0.567618,0.13275102,7,11,0.051268995,0.016143499,0.3067265,5.0384383,3,3,train,1
0.5003632,0.5009653,0.031075368,0.434867,0.567618,0.13275102,5,9,0.051268995,0.017452747,0.3316022,5.0265803,4,4,train,1
0.49913326,0.4979625,0.03100785,0.434867,0.567618,0.13275102,8,12,0.051268995,0.015715493,0.29859436,5.00191,4,3,train,1
0.49909943,0.4979625,0.031113276,0.434867,0.567618,0.13275102,5,9,0.051268995,0.016557321,0.3145891,5.0013638,3,3,train,1
0.50181526,0.5035546,0.031094212,0.434867,0.567618,0.13275102,11,15,0.051268995,0.01531432,0.29097208,5.0557075,4,4,train,1
0.51142704,0.511419,0.0013410448,0.50852,0.514166,0.0056459904,4,7,0.003966987,0.0013652601,0.025939941,5.231188,5,6,train,0
0.50013685,0.500091,0.00048045558,0.499328,0.501007,0.001679033,13,10,0.0015260279,0.00055421964,0.010530174,5.0027413,7,6,train,0
0.49863392,0.4986415,0.00082799507,0.495819,0.499481,0.0036619902,4,15,0.002745986,0.0009557354,0.018158972,4.9727297,7,8,train,0
0.51192296,0.511801,0.0031574445,0.504858,0.519964,0.015105963,14,19,0.009307981,0.0028669927,0.054472864,5.241502,6,6,train,0
0.50499684,0.506042,0.006352579,0.487579,0.520996,0.033416986,2,10,0.0152590275,0.005412996,0.10284692,5.1012435,5,5,train,0
0.50987077,0.509894,0.00015475757,0.509588,0.510199,0.0006110072,17,0,0.00030601025,0.00016868429,0.0032050014,5.1993656,7,4,train,0
0.50081587,0.500854,0.00035091437,0.500091,0.501464,0.001372993,7,1,0.0012210011,0.00047389456,0.009003997,5.016332,7,7,train,0
0.5101759,0.511267,0.0037598235,0.49555,0.51325,0.017699987,18,15,0.015258998,0.0033489969,0.06363094,5.205871,8,7,train,0
0.5079709,0.5082915,0.003509009,0.496313,0.51325,0.016936988,5,1,0.009918004,0.0036379946,0.0691219,5.1609364,5,6,train,0
0.5015104,0.49756083,0.041179962,0.421545,0.583746,0.16220102,6,10,0.06545997,0.018271679,0.34716192,5.064169,4,4,train,1
0.503281,0.50227153,0.041168835,0.421545,0.583746,0.16220102,5,9,0.06545997,0.018843027,0.3580175,5.099733,3,3,train,1
0.50191057,0.4998396,0.041018646,0.421545,0.583746,0.16220102,6,10,0.06545997,0.018759573,0.3564319,5.071934,3,4,train,1
0.50063676,0.49411094,0.041227795,0.421545,0.583746,0.16220102,4,8,0.06545997,0.017979607,0.34161255,5.0467386,4,3,train,1
0.501643,0.4957314,0.041243456,0.421545,0.583746,0.16220102,5,9,0.06545997,0.018872438,0.35857633,5.066935,3,4,train,1
0.5009608,0.49411494,0.041228984,0.421545,0.583746,0.16220102,5,9,0.06545997,0.019475024,0.37002546,5.053232,4,4,train,1
0.5066353,0.5080892,0.040987644,0.421545,0.583746,0.16220102,12,16,0.06545997,0.018994031,0.3608866,5.167185,3,4,train,1
0.5038518,0.5026428,0.04119901,0.421545,0.583746,0.16220102,9,13,0.06545997,0.01962716,0.37291604,5.1112795,3,4,train,1
0.5005108,0.49532288,0.041221213,0.421545,0.583746,0.16220102,6,10,0.06545997,0.018467858,0.3508893,5.0442047,3,2,train,1
0.505792,0.5047096,0.041095953,0.421545,0.583746,0.16220102,9,13,0.06545997,0.019062975,0.36219653,5.1502886,4,3,train,1
0.49784765,0.501243,0.046819035,0.426017,0.567313,0.14129603,7,15,0.03128001,0.013949688,0.26504406,5.000887,1,1,train,1
0.49743566,0.4972755,0.046832997,0.426017,0.567313,0.14129603,6,14,0.03128001,0.014327162,0.27221608,4.992712,1,1,train,1
0.49710765,0.493995,0.046820674,0.426017,0.567313,0.14129603,5,13,0.03128001,0.014279005,0.2713011,4.9861636,1,1,train,1
0.4966499,0.493995,0.046766043,0.426017,0.567313,0.14129603,4,12,0.03128001,0.013885476,0.26382405,4.976964,1,1,train,1
0.50807774,0.509512,0.0043169498,0.491583,0.512488,0.020905018,2,10,0.01739502,0.0040076314,0.07614499,5.1632333,6,5,train,0
0.5108243,0.511801,0.00454101,0.502417,0.519964,0.017546952,4,14,0.009307981,0.0045695147,0.08682078,5.2192416,6,7,train,0
0.50373805,0.50543153,0.0074138213,0.487579,0.520996,0.033416986,9,17,0.020141989,0.0076454156,0.1452629,5.076139,5,6,train,0
0.5003582,0.50032,0.0012992824,0.496276,0.503601,0.0073250234,18,19,0.0073250234,0.0009077411,0.01724708,5.0072,5,7,train,0
0.5112594,0.511343,0.0015728312,0.505011,0.513556,0.0085449815,17,18,0.0085449815,0.0013572072,0.025786936,5.227772,5,7,train,0
0.5052258,0.505432,0.0005247598,0.503906,0.506042,0.002135992,4,16,0.0018309951,0.00064241886,0.012205958,5.1050673,7,8,train,0
0.49938488,0.5032009,0.03460403,0.433951,0.563499,0.12954798,8,13,0.044555992,0.015270444,0.29013842,5.0116534,5,4,train,1
0.5004853,0.5027139,0.034427714,0.433951,0.563499,0.12954798,10,15,0.044555992,0.014156711,0.26897752,5.033416,3,3,train,1
0.4987885,0.49592158,0.034398455,0.433951,0.563499,0.12954798,5,10,0.044555992,0.013934968,0.2647644,4.9994636,3,3,train,1
0.49938625,0.5020591,0.034507103,0.433951,0.563499,0.12954798,5,10,0.044555992,0.015575387,0.29593235,5.0115466,2,3,train,1
0.49936262,0.50251496,0.03494977,0.433951,0.563499,0.12954798,8,13,0.044555992,0.015001606,0.2850305,5.0116897,4,3,train,1
0.5004227,0.50375736,0.034383122,0.433951,0.563499,0.12954798,7,12,0.044555992,0.015108542,0.2870623,5.0321026,3,4,train,1
0.49855247,0.49678063,0.034690015,0.433951,0.563499,0.12954798,8,13,0.044555992,0.015949428,0.30303913,4.9951587,5,4,train,1
0.50052786,0.50294304,0.034416012,0.433951,0.563499,0.12954798,7,12,0.044555992,0.0148981465,0.28306478,5.0342526,4,3,train,1
0.49795008,0.4952031,0.034628693,0.433951,0.563499,0.12954798,5,10,0.044555992,0.01539119,0.2924326,4.9830685,3,4,train,1
0.5011806,0.503634,0.034451164,0.433951,0.563499,0.12954798,10,15,0.044555992,0.0146075785,0.277544,5.047377,3,4,train,1
0.4990231,0.500244,0.004673257,0.481781,0.504669,0.022888005,6,8,0.014952987,0.0042404816,0.08056915,4.980918,4,5,train,0
0.51078624,0.510809,0.00015452503,0.510504,0.511114,0.00060999393,0,4,0.00060999393,0.00014441891,0.0027439594,5.218053,5,4,train,0
0.5097028,0.509741,0.00015927962,0.509436,0.510046,0.00060999393,17,4,0.00030601025,0.00014463224,0.0027480125,5.19594,4,5,train,0
0.5068789,0.48571956,0.04238804,0.444601,0.583451,0.13884997,6,11,0.04652998,0.014208213,0.26995605,5.174459,3,3,train,1
0.5074254,0.49978393,0.04285592,0.444601,0.583451,0.13884997,7,12,0.04652998,0.014178215,0.26938608,5.1863437,3,4,train,1
0.5088177,0.5024117,0.041721623,0.444601,0.583451,0.13884997,7,12,0.04652998,0.013468571,0.25590286,5.212723,2,3,train,1
0.5083488,0.5008393,0.041933604,0.444601,0.583451,0.13884997,7,12,0.04652998,0.014472765,0.27498254,5.2035384,3,4,train,1
0.5041818,0.48470902,0.042785127,0.444601,0.583451,0.13884997,5,10,0.04652998,0.016313933,0.30996472,5.120598,4,4,train,1
0.5192988,0.52361774,0.038847912,0.444601,0.583451,0.13884997,12,17,0.04652998,0.01563431,0.29705188,5.423607,3,3,train,1
0.5131289,0.5199487,0.040776435,0.444601,0.583451,0.13884997,9,14,0.04652998,0.015185517,0.28852484,5.29928,3,3,train,1
0.51427037,0.5165222,0.040052608,0.444601,0.583451,0.13884997,10,15,0.04652998,0.015168011,0.2881922,5.321564,3,2,train,1
0.5178491,0.526001,0.039971735,0.444601,0.583451,0.13884997,11,16,0.04652998,0.014003467,0.26606587,5.3953075,3,3,train,1
0.5035591,0.48138607,0.04304573,0.444601,0.583451,0.13884997,5,10,0.04652998,0.015151068,0.2878703,5.1084933,4,4,train,1
0.5022267,0.5034845,0.040290706,0.432837,0.573828,0.14099097,8,14,0.042724013,0.015535168,0.2951682,5.0771,3,2,train,1
0.5020884,0.50321686,0.040170074,0.432837,0.573828,0.14099097,6,12,0.042724013,0.015510587,0.29470116,5.074128,3,2,train,1
0.50148517,0.50105464,0.040232837,0.432837,0.573828,0.14099097,7,13,0.042724013,0.01544772,0.29350668,5.0621204,2,2,train,1
0.5026421,0.5034845,0.040197585,0.432837,0.573828,0.14099097,8,14,0.042724013,0.016275749,0.3092392,5.0852976,3,3,train,1
0.50249887,0.5034845,0.04014193,0.432837,0.573828,0.14099097,7,13,0.042724013,0.015164607,0.28812754,5.0823307,2,3,train,1
0.5019967,0.502035,0.04016342,0.432837,0.573828,0.14099097,9,15,0.042724013,0.015354975,0.29174453,5.0722756,3,3,train,1
0.50203687,0.502035,0.04017396,0.432837,0.573828,0.14099097,9,15,0.042724013,0.015652481,0.29739714,5.0730987,3,3,train,1
0.50089467,0.49965963,0.040339354,0.432837,0.573828,0.14099097,7,13,0.042724013,0.015322236,0.2911225,5.050453,2,1,train,1
0.50301236,0.5034845,0.040173028,0.432837,0.573828,0.14099097,9,15,0.042724013,0.015719378,0.29866818,5.092706,3,3,train,1
0.50230473,0.5029382,0.04019679,0.432837,0.573828,0.14099097,7,13,0.042724013,0.015559084,0.2956226,5.0785174,2,3,train,1
0.50156367,0.5019225,0.0017225264,0.496276,0.503601,0.0073250234,11,19,0.0030510128,0.0009395778,0.017851979,5.0313816,5,5,train,0
0.510832,0.510809,0.0001301296,0.510504,0.511114,0.00060999393,4,17,0.0004580021,0.00012852643,0.0024420023,5.218988,5,4,train,0
0.5059187,0.507681,0.0067740683,0.485174,0.515234,0.030059993,13,0,0.021210015,0.0062720994,0.11916989,5.119993,7,7,train,0
0.50514185,0.505279,0.00075824885,0.50299,0.5065,0.0035099983,10,19,0.0019840002,0.00068263005,0.012969971,5.103376,4,5,train,0
0.5107558,0.510809,0.00018227549,0.510504,0.511267,0.00076299906,17,4,0.00060999393,0.00020873547,0.003965974,5.2174306,5,7,train,0
0.5107558,0.510809,0.00018227547,0.510504,0.511267,0.00076299906,18,5,0.00060999393,0.00020873547,0.003965974,5.2174306,5,6,train,0
0.5011973,0.5016935,0.0054502743,0.4859,0.513519,0.027618974,17,14,0.01937899,0.0061035785,0.11596799,5.024569,6,6,train,0
0.49610844,0.49925148,0.008951406,0.471405,0.505737,0.034332007,10,4,0.020751,0.0042162696,0.08010912,4.9240746,4,5,train,0
0.5108015,0.510809,0.00020173144,0.510351,0.511267,0.0009160042,5,17,0.0006110072,0.0002248946,0.0042729974,5.2183642,4,4,train,0
0.50305134,0.5040585,0.0031328208,0.494293,0.507263,0.0129700005,3,1,0.011139005,0.002144263,0.040740997,5.061409,6,6,train,0
0.50608784,0.506958,0.003990195,0.488952,0.508789,0.019836992,18,19,0.019836992,0.0015341593,0.029149026,5.1228166,6,6,train,0
0.5004877,0.500549,0.00041072196,0.499786,0.501159,0.0013730228,17,2,0.0012210011,0.00044984565,0.008547068,5.009762,5,6,train,0
0.5041195,0.5042875,0.0014012174,0.498413,0.505432,0.007019013,6,0,0.006561011,0.00081915763,0.015563995,5.0827675,5,5,train,0
0.51067185,0.510657,0.00048462636,0.509741,0.51203,0.0022889972,8,17,0.0015259981,0.0004014718,0.007627964,5.2157207,4,5,train,0
0.49832097,0.497497,0.0040811705,0.492919,0.51123,0.018310994,14,11,0.0140379965,0.0048266915,0.09170714,4.9668083,7,7,train,0
0.494239,0.497047,0.046545926,0.421744,0.565177,0.14343303,7,14,0.03326401,0.014455687,0.27465805,4.928775,1,1,train,1
0.49396434,0.4943,0.046547905,0.421744,0.565177,0.14343303,6,13,0.03326401,0.014752846,0.28030407,4.9233494,1,1,train,1
0.5011898,0.5012355,0.0005429877,0.500244,0.502075,0.0018309951,17,1,0.0012210011,0.00042568383,0.008087993,5.02383,8,7,train,0
0.50742286,0.507415,0.00034277592,0.506805,0.508026,0.0012210011,5,2,0.001067996,0.00050583953,0.009610951,5.149563,8,8,train,0
0.4942163,0.49557078,0.04511712,0.411017,0.56864,0.157623,7,13,0.047455013,0.016757572,0.3183939,4.9257064,2,2,train,1
0.49308524,0.49445194,0.044884376,0.411017,0.56864,0.157623,6,12,0.047455013,0.017252166,0.32779115,4.9029536,3,2,train,1
0.49292555,0.49292964,0.044964522,0.411017,0.56864,0.157623,6,12,0.047455013,0.017197859,0.3267593,4.8999486,2,2,train,1
0.4929257,0.4940071,0.044875327,0.411017,0.56864,0.157623,7,13,0.047455013,0.01772708,0.33681452,4.8997912,2,2,train,1
0.49295622,0.49336547,0.044893537,0.411017,0.56864,0.157623,6,12,0.047455013,0.0174479,0.3315101,4.900426,2,2,train,1
0.4932161,0.4945535,0.044920523,0.411017,0.56864,0.157623,7,13,0.047455013,0.017237917,0.32752043,4.905599,2,2,train,1
0.492523,0.49117336,0.044849258,0.411017,0.56864,0.157623,5,11,0.047455013,0.016732566,0.31791875,4.891808,2,2,train,1
0.492374,0.4922943,0.044851087,0.411017,0.56864,0.157623,4,10,0.047455013,0.017698642,0.3362742,4.888875,2,2,train,1
0.4946137,0.4974453,0.04517561,0.411017,0.56864,0.157623,7,13,0.047455013,0.016902786,0.32115293,4.9336715,1,2,train,1
0.49307236,0.4942693,0.044871803,0.411017,0.56864,0.157623,7,13,0.047455013,0.017295629,0.32861695,4.9026766,2,3,train,1
0.5107481,0.510809,0.00017660871,0.510351,0.511114,0.00076299906,15,3,0.0004580021,0.00017657719,0.0033549666,5.2172737,6,5,train,0
0.5043865,0.5042875,0.00048549465,0.503601,0.505432,0.0018309951,4,15,0.0012199879,0.00042563048,0.008086979,5.0881186,5,4,train,0
0.51140416,0.511419,0.00017337476,0.511114,0.511725,0.0006110072,1,12,0.0004580021,0.0001608447,0.0030560493,5.230685,5,4,train,0
0.51114476,0.511419,0.0015048105,0.505316,0.513098,0.0077819824,15,16,0.0077819824,0.0013974183,0.026550949,5.2254243,7,6,train,0
0.50603426,0.506042,0.0008081701,0.504211,0.507873,0.0036619902,9,14,0.002135992,0.00067463046,0.012817979,5.121427,5,5,train,0
0.50072426,0.500854,0.0004159497,0.499938,0.501464,0.0015259981,5,2,0.0013740063,0.00057031604,0.010836005,5.0145,8,8,train,0
0.5104963,0.510504,0.00018366065,0.510199,0.510809,0.00060999393,2,14,0.0004580021,0.00018468342,0.003508985,5.21213,6,7,train,0
0.50060993,0.500625,0.00035270286,0.499938,0.501312,0.0013740063,17,13,0.0010690093,0.0005141591,0.009769022,5.012208,8,8,train,0
0.5034862,0.503753,0.0008313451,0.501159,0.504364,0.0032050014,5,1,0.002135992,0.0006342593,0.012050927,5.069981,7,7,train,0
0.5104353,0.510504,0.00017719019,0.510046,0.510809,0.00076299906,15,10,0.0004580021,0.00024105373,0.004580021,5.2108846,6,7,train,0
0.5080992,0.508991,0.04724628,0.428881,0.584211,0.15533,9,16,0.041350007,0.015712863,0.29854438,5.2079406,2,1,train,1
0.50621915,0.508991,0.04779043,0.428881,0.584211,0.15533,7,14,0.041350007,0.015668476,0.29770106,5.170836,2,2,train,1
0.5076885,0.508991,0.047356345,0.428881,0.584211,0.15533,8,15,0.041350007,0.01563392,0.2970445,5.1998057,2,1,train,1
0.50824916,0.510286,0.047399685,0.428881,0.584211,0.15533,8,15,0.041350007,0.015854422,0.301234,5.2112794,1,2,train,1
0.5072814,0.508991,0.047543682,0.428881,0.584211,0.15533,8,15,0.041350007,0.015825376,0.30068213,5.1918964,3,1,train,1
0.5090105,0.510286,0.04726701,0.428881,0.584211,0.15533,9,16,0.041350007,0.016517797,0.31383815,5.226517,2,2,train,1
0.5074769,0.508991,0.0474179,0.428881,0.584211,0.15533,8,15,0.041350007,0.01561953,0.29677108,5.1956263,3,1,train,1
0.508258,0.510286,0.04736836,0.428881,0.584211,0.15533,8,15,0.041350007,0.015863674,0.3014098,5.2113986,1,2,train,1
0.50831246,0.510286,0.04737567,0.428881,0.584211,0.15533,8,15,0.041350007,0.015920995,0.3024989,5.21252,1,2,train,1
0.50759304,0.510286,0.047538437,0.428881,0.584211,0.15533,8,15,0.041350007,0.015803242,0.30026162,5.1982117,2,2,train,1
0.4999445,0.504858,0.039920192,0.431463,0.558722,0.12725902,7,14,0.027924031,0.013162331,0.25008428,5.0307617,1,1,train,1
0.49958435,0.504858,0.039943967,0.431463,0.558722,0.12725902,7,14,0.027924031,0.012783257,0.2428819,5.023601,1,1,train,1
0.5002561,0.5060624,0.03994942,0.431463,0.558722,0.12725902,8,15,0.027924031,0.012775622,0.24273682,5.037042,1,2,train,1
0.49905634,0.504858,0.040090077,0.431463,0.558722,0.12725902,7,14,0.027924031,0.013134432,0.24955422,5.013289,2,1,train,1
0.4998799,0.504858,0.039919913,0.431463,0.558722,0.12725902,8,15,0.027924031,0.012982297,0.24666363,5.0294695,1,1,train,1
0.50047386,0.50623155,0.039997213,0.431463,0.558722,0.12725902,8,15,0.027924031,0.013004833,0.24709183,5.0414767,1,2,train,1
0.4999404,0.504858,0.039920114,0.431463,0.558722,0.12725902,8,15,0.027924031,0.012918564,0.2454527,5.0306807,1,1,train,1
0.49969155,0.504858,0.039930444,0.431463,0.558722,0.12725902,8,15,0.027924031,0.013180572,0.25043085,5.0257206,1,1,train,1
0.49916905,0.504858,0.040047828,0.431463,0.558722,0.12725902,7,14,0.027924031,0.013015783,0.24729988,5.0154715,2,1,train,1
0.49971333,0.504858,0.03992836,0.431463,0.558722,0.12725902,8,15,0.027924031,0.013157604,0.24999449,5.0261536,1,1,train,1
0.49398065,0.4928496,0.033522498,0.424631,0.55784,0.13320899,9,14,0.056763023,0.015265772,0.29004967,4.9028125,4,3,train,1
0.49297157,0.49187022,0.033526324,0.424631,0.55784,0.13320899,9,14,0.056763023,0.0148091065,0.28137302,4.8828993,3,2,train,1
0.49414712,0.4946101,0.033601493,0.424631,0.55784,0.13320899,8,13,0.056763023,0.016673557,0.31679758,4.906209,3,3,train,1
0.49363393,0.4938295,0.033542976,0.424631,0.55784,0.13320899,5,10,0.056763023,0.015332568,0.2913188,4.895993,3,2,train,1
0.49373946,0.49373144,0.03347789,0.424631,0.55784,0.13320899,7,12,0.056763023,0.014867762,0.28248748,4.8979883,4,3,train,1
0.49409413,0.49453354,0.033505086,0.424631,0.55784,0.13320899,5,10,0.056763023,0.015399814,0.29259646,4.905032,3,3,train,1
0.49323416,0.49209946,0.03353172,0.424631,0.55784,0.13320899,6,11,0.056763023,0.015480592,0.29413125,4.888086,2,2,train,1
0.49354953,0.49336046,0.033571757,0.424631,0.55784,0.13320899,6,11,0.056763023,0.015840776,0.30097476,4.894364,3,2,train,1
0.49354357,0.49424833,0.033561196,0.424631,0.55784,0.13320899,7,12,0.056763023,0.015649559,0.29734161,4.8942327,3,3,train,1
0.4927558,0.4920745,0.033598028,0.424631,0.55784,0.13320899,7,12,0.056763023,0.01510445,0.28698456,4.878743,2,3,train,1
0.49966374,0.499633,0.0006696155,0.498413,0.501007,0.002594024,5,15,0.0015260279,0.0006022234,0.011442244,4.9932866,6,7,train,0
0.5062099,0.506042,0.00078984443,0.504211,0.507873,0.0036619902,12,17,0.002135992,0.0007067354,0.013427973,5.124981,5,5,train,0
0.50080043,0.5016315,0.045556158,0.421599,0.579833,0.15823397,8,14,0.051880002,0.017011227,0.3232133,5.057529,2,2,train,1
0.50072706,0.5016315,0.045588177,0.421599,0.579833,0.15823397,8,14,0.051880002,0.017707702,0.33644634,5.0561185,1,2,train,1
0.5008472,0.5016315,0.04555664,0.421599,0.579833,0.15823397,6,12,0.051880002,0.0171192,0.3252648,5.058467,2,2,train,1
0.50101936,0.5016315,0.04555694,0.421599,0.579833,0.15823397,6,12,0.051880002,0.016959516,0.32223082,5.061918,2,2,train,1
0.50173724,0.502776,0.045630418,0.421599,0.579833,0.15823397,8,14,0.051880002,0.017351821,0.32968462,5.0764484,2,2,train,1
0.5015925,0.502776,0.04560172,0.421599,0.579833,0.15823397,8,14,0.051880002,0.017059816,0.3241365,5.0734916,2,2,train,1
0.50151765,0.502776,0.04559059,0.421599,0.579833,0.15823397,8,14,0.051880002,0.01697875,0.32259625,5.07197,2,2,train,1
0.5013949,0.50206894,0.04559833,0.421599,0.579833,0.15823397,8,14,0.051880002,0.017096061,0.32482517,5.0695224,1,2,train,1
0.5012125,0.5017812,0.045570508,0.421599,0.579833,0.15823397,6,12,0.051880002,0.016954156,0.32212895,5.0658135,1,1,train,1
0.50116587,0.5016315,0.045566086,0.421599,0.579833,0.15823397,7,13,0.051880002,0.016993724,0.32288074,5.0648704,1,1,train,1
0.484932,0.481596,0.07929312,0.365101,0.609241,0.24414,4,12,0.064689994,0.02480737,0.47134,4.8289285,1,1,train,1
0.50382197,0.503906,0.00038439,0.503143,0.504669,0.0015259981,11,14,0.0009160042,0.0005621032,0.01067996,5.076733,7,7,train,0
0.50038093,0.500549,0.00051045953,0.499328,0.501464,0.0021360219,3,15,0.0015260279,0.000554215,0.010530084,5.007627,6,4,train,0
0.50959873,0.513914,0.04015148,0.432684,0.575812,0.14312798,9,14,0.045166016,0.016741121,0.31808132,5.22606,2,3,train,1
0.5091773,0.5125223,0.040111303,0.432684,0.575812,0.14312798,9,14,0.045166016,0.016357994,0.31080186,5.2174096,2,3,train,1
0.50725526,0.5067704,0.040176492,0.432684,0.575812,0.14312798,6,11,0.045166016,0.015887715,0.3018666,5.17844,2,2,train,1
0.5073203,0.50608504,0.040216397,0.432684,0.575812,0.14312798,6,11,0.045166016,0.016689656,0.31710348,5.179824,3,3,train,1
0.5078618,0.50851256,0.040030934,0.432684,0.575812,0.14312798,10,15,0.045166016,0.015507717,0.29464662,5.190522,2,3,train,1
0.5084163,0.5090042,0.040042333,0.432684,0.575812,0.14312798,10,15,0.045166016,0.01547175,0.29396325,5.20181,1,2,train,1
0.5063447,0.5020461,0.040244922,0.432684,0.575812,0.14312798,5,10,0.045166016,0.017041175,0.32378232,5.160091,3,3,train,1
0.5086825,0.5110903,0.040094145,0.432684,0.575812,0.14312798,10,15,0.045166016,0.01648697,0.31325245,5.207309,3,3,train,1
0.50910234,0.5105783,0.04009168,0.432684,0.575812,0.14312798,6,11,0.045166016,0.01612097,0.30629843,5.215851,3,3,train,1
0.50860274,0.51087314,0.04006552,0.432684,0.575812,0.14312798,8,13,0.045166016,0.016535025,0.31416547,5.205639,2,2,train,1
0.5112134,0.511267,0.0002062275,0.510809,0.511725,0.0009160042,9,17,0.0004580021,0.00021673503,0.0041179657,5.2267838,7,6,train,0
0.5110074,0.511038,0.00019350302,0.510504,0.511419,0.0009149909,18,1,0.00060999393,0.00019262967,0.0036599636,5.2225723,6,6,train,0
0.5111065,0.511114,0.00019568524,0.510809,0.511419,0.00060999393,13,5,0.00060999393,0.00020857547,0.003962934,5.224598,6,6,train,0
0.5109769,0.510962,0.00023584225,0.510504,0.511419,0.0009149909,0,14,0.0004580021,0.00015268514,0.0029010177,5.2219496,6,7,train,0
0.5099242,0.5106565,0.0038417673,0.494024,0.512793,0.018768996,12,15,0.016784996,0.0027948932,0.05310297,5.2007475,3,3,train,0
0.5006175,0.500549,0.00040796006,0.499633,0.501464,0.0018309951,9,14,0.0009160042,0.00042563048,0.008086979,5.0123615,6,5,train,0
0.50582874,0.505316,0.03760803,0.432989,0.579016,0.14602697,8,13,0.06225601,0.01684097,0.31997842,5.14554,2,2,train,1
0.50436324,0.50379,0.03764253,0.432989,0.579016,0.14602697,5,10,0.06225601,0.017717933,0.33664072,5.1159844,3,2,train,1
0.5045314,0.5052868,0.037586115,0.432989,0.579016,0.14602697,9,14,0.06225601,0.01623264,0.30842015,5.1192923,2,2,train,1
0.5038158,0.50171745,0.037678126,0.432989,0.579016,0.14602697,6,11,0.06225601,0.016253352,0.3088137,5.1050005,2,3,train,1
0.5036543,0.50379,0.037671156,0.432989,0.579016,0.14602697,5,10,0.06225601,0.016472522,0.3129779,5.101735,3,2,train,1
0.5051372,0.50447106,0.037611596,0.432989,0.579016,0.14602697,6,11,0.06225601,0.017171636,0.3262611,5.1315646,2,3,train,1
0.5043421,0.50309193,0.037539553,0.432989,0.579016,0.14602697,6,11,0.06225601,0.016058212,0.30510604,5.1154027,3,3,train,1
0.5048154,0.5050741,0.037601102,0.432989,0.579016,0.14602697,5,10,0.06225601,0.016460327,0.31274623,5.125048,2,1,train,1
0.5050763,0.50504005,0.037536595,0.432989,0.579016,0.14602697,8,13,0.06225601,0.016568247,0.3147967,5.130221,2,2,train,1
0.5047654,0.50446653,0.037522305,0.432989,0.579016,0.14602697,9,14,0.06225601,0.015930748,0.30268422,5.123919,3,2,train,1
0.5028529,0.5040585,0.0031973908,0.494293,0.507263,0.0129700005,4,2,0.011139005,0.002296843,0.043640018,5.0574245,5,6,train,0
0.5098632,0.510046,0.00094501994,0.506842,0.511267,0.004424989,19,18,0.004424989,0.00081110315,0.01541096,5.199228,5,6,train,0
0.5071405,0.50711,0.00039370565,0.506347,0.507873,0.0015259981,3,13,0.0009149909,0.00044162964,0.008390963,5.1438336,9,7,train,0
0.5000147,0.500549,0.0019750884,0.495361,0.503295,0.007934004,3,18,0.005798012,0.0017586931,0.03341517,5.000373,7,7,train,0
0.5010982,0.500854,0.00057178485,0.500244,0.502075,0.0018309951,19,0,0.0012210011,0.00041763092,0.007934988,5.0219955,8,6,train,0
0.49735975,0.498107,0.0029799205,0.490631,0.504211,0.013579994,5,0,0.009766012,0.0020802114,0.03952402,4.947512,5,5,train,0
0.5100537,0.510809,0.0035103983,0.494787,0.511114,0.016326994,6,15,0.016326994,0.0019273664,0.03661996,5.2033424,5,5,train,0
0.49409834,0.49425417,0.026429426,0.445243,0.549155,0.103911996,7,11,0.037689,0.011589724,0.22020474,4.8966327,3,3,train,1
0.49182186,0.48459566,0.026724061,0.445243,0.549155,0.103911996,5,9,0.037689,0.011870613,0.22554165,4.8520594,4,5,train,1
0.4961357,0.49741477,0.02622442,0.445243,0.549155,0.103911996,12,16,0.037689,0.01374968,0.2612439,4.9367685,4,5,train,1
0.4935082,0.4932295,0.026802115,0.445243,0.549155,0.103911996,8,12,0.037689,0.013190382,0.25061727,4.8853736,4,3,train,1
0.4923811,0.49290544,0.026818264,0.445243,0.549155,0.103911996,9,13,0.037689,0.012245146,0.23265776,4.8631682,3,3,train,1
0.4929983,0.4913171,0.026746685,0.445243,0.549155,0.103911996,8,12,0.037689,0.014413716,0.2738606,4.8752546,4,5,train,1
0.4935382,0.49337113,0.026703812,0.445243,0.549155,0.103911996,7,11,0.037689,0.013340709,0.25347346,4.885863,2,3,train,1
0.4944399,0.4934436,0.026137497,0.445243,0.549155,0.103911996,12,16,0.037689,0.012984924,0.24671355,4.90308,4,5,train,1
0.48988467,0.48451698,0.027133744,0.445243,0.549155,0.103911996,5,9,0.037689,0.013057395,0.2480905,4.814464,4,3,train,1
0.49182343,0.4877654,0.026811099,0.445243,0.549155,0.103911996,7,11,0.037689,0.012392968,0.23546639,4.852183,4,4,train,1
0.49553505,0.49699998,0.04793226,0.421698,0.570166,0.14846799,5,13,0.037079006,0.015355156,0.29174796,4.9570494,1,1,train,1
0.49535194,0.49539798,0.047922526,0.421698,0.570166,0.14846799,4,12,0.037079006,0.015114262,0.28717098,4.9534025,1,1,train,1
0.51077855,0.510809,0.00019660653,0.510351,0.511114,0.00076299906,8,18,0.0004580021,0.00016852429,0.0032019615,5.217895,6,5,train,0
0.49450794,0.49565634,0.041867312,0.421831,0.565264,0.14343297,6,11,0.04409799,0.015223376,0.28924415,4.9258204,3,2,train,1
0.4912882,0.4837594,0.042286135,0.421831,0.565264,0.14343297,5,10,0.04409799,0.015329877,0.29126766,4.863044,3,2,train,1
0.495119,0.49864456,0.04197358,0.421831,0.565264,0.14343297,9,14,0.04409799,0.015561686,0.29567203,4.9380913,3,3,train,1
0.49248576,0.48659635,0.04207476,0.421831,0.565264,0.14343297,5,10,0.04409799,0.016306346,0.3098206,4.88625,3,3,train,1
0.49519578,0.49528474,0.0418554,0.421831,0.565264,0.14343297,9,14,0.04409799,0.016059274,0.3051262,4.939415,2,2,train,1
0.4920473,0.48669234,0.042134922,0.421831,0.565264,0.14343297,5,10,0.04409799,0.015866445,0.30146247,4.8777175,3,3,train,1
0.4961473,0.49886513,0.04197773,0.421831,0.565264,0.14343297,10,15,0.04409799,0.016063258,0.30520192,4.958484,2,3,train,1
0.49367952,0.4906903,0.041889943,0.421831,0.565264,0.14343297,5,10,0.04409799,0.015293038,0.29056773,4.909485,3,2,train,1
0.49452987,0.49926752,0.042073913,0.421831,0.565264,0.14343297,8,13,0.04409799,0.015427578,0.293124,4.926599,3,3,train,1
0.49654752,0.4996447,0.041987903,0.421831,0.565264,0.14343297,10,15,0.04409799,0.016280334,0.30932635,4.966448,3,4,train,1
0.51083964,0.510809,0.0001414433,0.510504,0.511114,0.00060999393,2,15,0.0004580021,0.00014457891,0.0027469993,5.219144,5,4,train,0
0.5071787,0.50718653,0.0003812881,0.506347,0.507873,0.0015259981,4,14,0.0009149909,0.0004415763,0.00838995,5.1446075,8,8,train,0
0.4986415,0.4986415,0.0008363913,0.495819,0.499633,0.0038140118,0,16,0.002745986,0.0009155791,0.017396003,4.972882,7,7,train,0
0.5107938,0.510809,0.00021531248,0.510351,0.511267,0.0009160042,3,15,0.0006110072,0.0002329475,0.0044260025,5.2182083,4,4,train,0
0.51022923,0.510351,0.0003431766,0.509436,0.510809,0.001372993,1,19,0.0009149909,0.00035320772,0.0067109466,5.2066793,6,6,train,0
0.5110456,0.511114,0.00023365398,0.510657,0.511419,0.0007619858,2,11,0.00060999393,0.00025683956,0.0048799515,5.223353,5,5,train,0
0.50495183,0.5068438,0.08167105,0.35369,0.653068,0.299378,10,15,0.10177603,0.033259325,0.6319272,5.2329288,2,3,train,1
0.5028636,0.5019888,0.081667915,0.35369,0.653068,0.299378,7,12,0.10177603,0.03181039,0.6043974,5.1908283,2,2,train,1
0.50261235,0.4999958,0.08171726,0.35369,0.653068,0.299378,6,11,0.10177603,0.03188901,0.6058912,5.1859365,3,3,train,1
0.50554264,0.51008403,0.081724085,0.35369,0.653068,0.299378,9,14,0.10177603,0.032706738,0.621428,5.2450433,2,3,train,1
0.50417536,0.5048233,0.08165832,0.35369,0.653068,0.299378,9,14,0.10177603,0.03298341,0.6266848,5.217217,2,3,train,1
0.5015141,0.4947595,0.08177296,0.35369,0.653068,0.299378,5,10,0.10177603,0.032694064,0.6211872,5.1640625,3,2,train,1
0.5042027,0.50609386,0.08164098,0.35369,0.653068,0.299378,10,15,0.10177603,0.032345824,0.6145707,5.2177114,2,2,train,1
0.5017874,0.49557003,0.08177645,0.35369,0.653068,0.299378,6,11,0.10177603,0.031986218,0.60773814,5.1695604,3,2,train,1
0.5026831,0.50132906,0.08186283,0.35369,0.653068,0.299378,7,12,0.10177603,0.032037653,0.6087154,5.187837,2,3,train,1
0.50314206,0.5029943,0.08182794,0.35369,0.653068,0.299378,8,13,0.10177603,0.032293525,0.61357695,5.196956,3,3,train,1
0.50549257,0.505584,0.00035925314,0.504821,0.506195,0.0013740063,10,15,0.001067996,0.00039357887,0.0074779987,5.110457,6,6,train,0
0.4968616,0.49725407,0.040727466,0.428312,0.565336,0.13702399,5,11,0.041046023,0.014329147,0.27225378,4.9706025,1,1,train,1
0.4971004,0.49671817,0.04083244,0.428312,0.565336,0.13702399,6,12,0.041046023,0.01515433,0.28793228,4.9755225,2,3,train,1
0.4965489,0.49594837,0.040806342,0.428312,0.565336,0.13702399,6,12,0.041046023,0.015610177,0.29659337,4.9645195,2,1,train,1
0.49786687,0.50200546,0.040820472,0.428312,0.565336,0.13702399,7,13,0.041046023,0.014824315,0.281662,4.990754,2,2,train,1
0.49715456,0.49878824,0.040745888,0.428312,0.565336,0.13702399,6,12,0.041046023,0.014723462,0.2797458,4.976458,2,1,train,1
0.4970537,0.4978925,0.040808763,0.428312,0.565336,0.13702399,7,13,0.041046023,0.014940734,0.28387395,4.9745555,3,2,train,1
0.49745664,0.4986518,0.040803142,0.428312,0.565336,0.13702399,8,14,0.041046023,0.014903045,0.28315786,4.9825616,1,2,train,1
0.4981486,0.5017253,0.040884912,0.428312,0.565336,0.13702399,7,13,0.041046023,0.015013315,0.285253,4.9964724,1,2,train,1
0.49691215,0.49533188,0.040886436,0.428312,0.565336,0.13702399,6,12,0.041046023,0.015401682,0.29263195,4.971867,2,3,train,1
0.4974199,0.5004315,0.040763613,0.428312,0.565336,0.13702399,6,12,0.041046023,0.014582267,0.27706307,4.9817643,1,1,train,1
0.510069,0.510809,0.003512983,0.494787,0.511114,0.016326994,8,17,0.016326994,0.0019113139,0.036314964,5.2036543,5,5,train,0
0.5109007,0.5108855,0.00014791563,0.510504,0.511114,0.00060999393,13,9,0.0004580021,0.00014457891,0.0027469993,5.22039,5,5,train,0
0.49789366,0.497802,0.0023204111,0.492919,0.502227,0.00930801,8,17,0.0076300204,0.0028510627,0.05417019,4.95807,7,6,train,0
0.5018764,0.501922,0.00054180465,0.500701,0.50299,0.0022889972,18,1,0.0012210011,0.00064236554,0.012204945,5.0376053,8,7,train,0
0.5008083,0.500854,0.0007125501,0.499176,0.502227,0.0030510128,15,12,0.002289027,0.0009234767,0.017546058,5.0161886,7,7,train,0
0.50756043,0.507568,0.0003657782,0.506805,0.508178,0.001372993,2,14,0.001067996,0.00054615736,0.01037699,5.1523523,8,8,train,0
0.5010295,0.500854,0.000531413,0.500244,0.501922,0.00167799,18,1,0.0012210011,0.00042563048,0.008086979,5.020617,8,6,train,0
0.5024563,0.50238,0.0006073888,0.501312,0.503753,0.002440989,19,5,0.001372993,0.000465735,0.008848965,5.0492544,6,6,train,0
0.5100843,0.51012254,0.000606282,0.508215,0.510809,0.0025939941,0,5,0.0019840002,0.00061842013,0.011749983,5.2037272,4,5,train,0
0.4897901,0.4927275,0.033553157,0.432074,0.540411,0.108336985,7,14,0.023346007,0.011042526,0.20980799,4.8204036,1,1,train,1
0.48962992,0.4911255,0.03354822,0.432074,0.540411,0.108336985,6,13,0.023346007,0.011195105,0.21270698,4.8172584,1,1,train,1
0.49725303,0.4971915,0.0023198728,0.492462,0.503601,0.011139005,8,16,0.008240014,0.0021283187,0.040438056,4.9453197,4,5,train,0
0.50036573,0.500396,0.00046938684,0.499481,0.501312,0.0018310249,10,19,0.0010690093,0.0005222135,0.009922057,5.0073214,9,7,train,0
0.50862706,0.508978,0.0014289869,0.50318,0.509588,0.006407976,15,0,0.004576981,0.0008272623,0.015717983,5.1740713,6,6,train,0
0.50968,0.509741,0.00029520635,0.509131,0.510199,0.001067996,3,6,0.001067996,0.0003535277,0.0067170262,5.1954756,6,6,train,0
0.49833623,0.49826,0.0019274144,0.49475,0.502227,0.0074770153,15,17,0.006408006,0.0017829019,0.033875138,4.966853,5,5,train,0
0.4986414,0.4986415,0.001731427,0.49475,0.502227,0.0074770153,17,19,0.006408006,0.0017346928,0.032959163,4.9729247,5,5,train,0
0.5008541,0.500854,0.00036427626,0.500091,0.501464,0.001372993,3,11,0.0012210011,0.0005219987,0.0099179745,5.017097,8,7,train,0
0.4989925,0.4997095,0.0038729974,0.493225,0.51123,0.018004984,1,7,0.0140379965,0.0038546904,0.07323912,4.9801693,6,6,train,0
0.49207535,0.48406786,0.027325282,0.446776,0.545043,0.09826699,5,9,0.032653987,0.012578064,0.23898321,4.857697,4,5,train,1
0.49314243,0.48850423,0.027073503,0.446776,0.545043,0.09826699,5,9,0.032653987,0.012607036,0.2395337,4.8784485,3,4,train,1
0.49370876,0.48943204,0.026904263,0.446776,0.545043,0.09826699,6,10,0.032653987,0.012008034,0.22815263,4.8894424,3,4,train,1
0.4956824,0.49367544,0.026463594,0.446776,0.545043,0.09826699,8,12,0.032653987,0.012138889,0.23063889,4.928026,2,3,train,1
0.49619192,0.49636728,0.026796982,0.446776,0.545043,0.09826699,10,14,0.032653987,0.012582657,0.23907048,4.9384904,4,4,train,1
0.4914987,0.48485047,0.02695932,0.446776,0.545043,0.09826699,5,9,0.032653987,0.011667077,0.22167447,4.845955,4,3,train,1
0.49480262,0.49378002,0.026311422,0.446776,0.545043,0.09826699,8,12,0.032653987,0.011349645,0.21564326,4.9104376,3,3,train,1
0.49215084,0.48703623,0.027200839,0.446776,0.545043,0.09826699,5,9,0.032653987,0.011566887,0.21977085,4.859046,3,4,train,1
0.4970811,0.49731147,0.026118966,0.446776,0.545043,0.09826699,10,14,0.032653987,0.0115601,0.2196419,4.955437,3,3,train,1
0.4989066,0.5025991,0.026249861,0.446776,0.545043,0.09826699,12,16,0.032653987,0.012118289,0.2302475,4.991937,4,4,train,1
0.49985448,0.49986202,0.0004136189,0.49887,0.500701,0.0018310249,14,6,0.0010680258,0.0005140022,0.009766042,4.997093,8,7,train,0
0.49700204,0.500521,0.05694254,0.406751,0.582531,0.17577997,6,14,0.043029994,0.01806947,0.34331995,5.005069,1,1,train,1
0.496773,0.498231,0.056939907,0.406751,0.582531,0.17577997,5,13,0.043029994,0.018109469,0.3440799,5.000511,1,1,train,1
0.49637645,0.495026,0.056924645,0.406751,0.582531,0.17577997,4,12,0.043029994,0.017691577,0.33613995,4.992601,2,1,train,1
0.5115491,0.5114955,0.0012759262,0.50852,0.514166,0.0056459904,2,5,0.003966987,0.0011645776,0.022126973,5.233682,5,5,train,0
0.51081675,0.510809,0.0001403555,0.510504,0.511114,0.00060999393,8,13,0.0004580021,0.00016052472,0.0030499697,5.2186756,6,4,train,0
0.501446,0.50209194,0.04678361,0.413817,0.585326,0.17150903,7,12,0.058899015,0.018879825,0.3587167,5.0727353,3,2,train,1
0.5012118,0.50372314,0.046694092,0.413817,0.585326,0.17150903,8,13,0.058899015,0.019514313,0.37077194,5.067873,2,2,train,1
0.49975175,0.49977383,0.046753265,0.413817,0.585326,0.17150903,7,12,0.058899015,0.018328415,0.3482399,5.0387545,2,2,train,1
0.5001761,0.5002271,0.046692237,0.413817,0.585326,0.17150903,6,11,0.058899015,0.018935539,0.35977525,5.0471244,3,4,train,1
0.5013609,0.50477624,0.04677267,0.413817,0.585326,0.17150903,9,14,0.058899015,0.019861942,0.3773769,5.0710087,3,3,train,1
0.49970326,0.49810243,0.046646327,0.413817,0.585326,0.17150903,8,13,0.058899015,0.018197363,0.34574988,5.037585,2,1,train,1
0.5001061,0.50038326,0.046697363,0.413817,0.585326,0.17150903,8,13,0.058899015,0.019533057,0.37112808,5.0457354,2,2,train,1
0.49845618,0.49641243,0.04681541,0.413817,0.585326,0.17150903,6,11,0.058899015,0.019458964,0.3697203,5.013005,3,2,train,1
0.5007695,0.500106,0.046854157,0.413817,0.585326,0.17150903,7,12,0.058899015,0.01877464,0.35671815,5.059308,2,3,train,1
0.49983478,0.49967933,0.046807125,0.413817,0.585326,0.17150903,6,11,0.058899015,0.019388538,0.36838222,5.040515,2,3,train,1
0.510031,0.5106565,0.0038387633,0.49555,0.514166,0.01861599,15,10,0.015258998,0.0037906796,0.072022915,5.202926,7,7,train,0
0.5108091,0.510809,0.00011812499,0.510504,0.511114,0.00060999393,14,19,0.0004580021,0.00011236731,0.0021349788,5.2185187,5,3,train,0
0.51014537,0.511267,0.0037077554,0.49555,0.513098,0.017547995,10,18,0.015258998,0.0030921039,0.058749974,5.2052402,6,7,train,0
0.49133882,0.495779,0.09006365,0.345709,0.6341,0.28839102,7,14,0.07782,0.029706422,0.564422,4.9905057,1,1,train,1
0.49117097,0.4941005,0.09006133,0.345709,0.6341,0.28839102,6,13,0.07782,0.030011632,0.570221,4.987199,1,1,train,1
0.5015811,0.5031091,0.033180624,0.440673,0.561828,0.12115502,9,14,0.040283024,0.014863757,0.2824114,5.0536904,2,3,train,1
0.5018176,0.50277877,0.033173107,0.440673,0.561828,0.12115502,10,15,0.040283024,0.01423073,0.27038386,5.058428,2,3,train,1
0.50093293,0.49964362,0.033212956,0.440673,0.561828,0.12115502,8,13,0.040283024,0.0145039335,0.27557474,5.040737,3,3,train,1
0.50040233,0.49904883,0.03320258,0.440673,0.561828,0.12115502,9,14,0.040283024,0.014542823,0.27631363,5.0300994,3,2,train,1
0.50148314,0.5038474,0.033290204,0.440673,0.561828,0.12115502,7,12,0.040283024,0.015945906,0.30297223,5.0518723,3,3,train,1
0.5012043,0.5012505,0.033163704,0.440673,0.561828,0.12115502,5,10,0.040283024,0.013990545,0.26582035,5.04611,2,2,train,1
0.501808,0.5035173,0.03314728,0.440673,0.561828,0.12115502,7,12,0.040283024,0.013756287,0.26136947,5.058201,2,3,train,1
0.5018479,0.50301754,0.033078227,0.440673,0.561828,0.12115502,10,15,0.040283024,0.013271791,0.25216404,5.0589104,3,3,train,1
0.50164616,0.5014018,0.033178184,0.440673,0.561828,0.12115502,10,15,0.040283024,0.0138922725,0.26395318,5.054993,2,3,train,1
0.50049627,0.49920678,0.033116676,0.440673,0.561828,0.12115502,9,14,0.040283024,0.013918998,0.26446095,5.031864,3,3,train,1
0.5004191,0.500549,0.00034902515,0.499786,0.501007,0.001221031,7,5,0.0009160042,0.00036952997,0.0070210695,5.008387,4,4,train,0
0.500051,0.49991316,0.049094107,0.410898,0.588205,0.17730698,6,12,0.05798298,0.019809984,0.37638968,5.0492253,3,2,train,1
0.4994843,0.49809188,0.04908242,0.410898,0.588205,0.17730698,7,13,0.05798298,0.019055402,0.36205265,5.0378737,2,2,train,1
0.49947494,0.49914294,0.04908117,0.410898,0.588205,0.17730698,5,11,0.05798298,0.019287571,0.36646384,5.0376835,2,2,train,1
0.49895543,0.4963985,0.04915204,0.410898,0.588205,0.17730698,4,10,0.05798298,0.02032721,0.386217,5.027448,3,2,train,1
0.49946895,0.49712986,0.049114913,0.410898,0.588205,0.17730698,4,10,0.05798298,0.019957239,0.37918752,5.03763,3,2,train,1
0.50042254,0.5010573,0.049125183,0.410898,0.588205,0.17730698,7,13,0.05798298,0.019865965,0.37745336,5.05672,2,2,train,1
0.49869078,0.4963475,0.04914682,0.410898,0.588205,0.17730698,4,10,0.05798298,0.019920502,0.37848952,5.022157,3,3,train,1
0.4986593,0.4963475,0.04918907,0.410898,0.588205,0.17730698,4,10,0.05798298,0.019606797,0.37252915,5.021614,2,1,train,1
0.49952373,0.4992465,0.049174838,0.410898,0.588205,0.17730698,6,12,0.05798298,0.01968743,0.37406117,5.038843,3,3,train,1
0.5000259,0.4992465,0.049088135,0.410898,0.588205,0.17730698,6,12,0.05798298,0.019334476,0.36735505,5.0487123,2,3,train,1
0.51059556,0.509512,0.0038777262,0.505469,0.523474,0.018004954,10,4,0.014953971,0.004448988,0.08453077,5.214457,6,6,train,0
0.4961516,0.49928898,0.037046377,0.424292,0.557348,0.13305601,6,12,0.04089299,0.01456048,0.27664912,4.9507766,2,2,train,1
0.4958734,0.49928898,0.037040643,0.424292,0.557348,0.13305601,7,13,0.04089299,0.014780603,0.28083146,4.9452496,1,1,train,1
0.4961726,0.4993264,0.03702902,0.424292,0.557348,0.13305601,6,12,0.04089299,0.014311759,0.27192342,4.951169,1,1,train,1
0.49582434,0.49928898,0.0369686,0.424292,0.557348,0.13305601,7,13,0.04089299,0.013941668,0.26489168,4.944169,2,2,train,1
0.49623674,0.5012833,0.03701766,0.424292,0.557348,0.13305601,8,14,0.04089299,0.014036745,0.26669815,4.952425,1,2,train,1
0.4956727,0.49928898,0.036986962,0.424292,0.557348,0.13305601,6,12,0.04089299,0.014687886,0.27906984,4.9411893,2,2,train,1
0.49515277,0.49696946,0.036985762,0.424292,0.557348,0.13305601,6,12,0.04089299,0.014388961,0.27339026,4.930884,2,1,train,1
0.49533287,0.4987542,0.03699745,0.424292,0.557348,0.13305601,7,13,0.04089299,0.014443519,0.27442685,4.93447,2,1,train,1
0.49551997,0.49859428,0.03696696,0.424292,0.557348,0.13305601,8,14,0.04089299,0.014677443,0.27887142,4.9381323,1,2,train,1
0.49568003,0.49928898,0.036973756,0.424292,0.557348,0.13305601,6,12,0.04089299,0.014502776,0.27555275,4.9413157,2,2,train,1
0.50080824,0.500854,0.00034832186,0.500091,0.501464,0.001372993,9,3,0.0012210011,0.00047389456,0.009003997,5.0161796,8,7,train,0
0.51083183,0.511572,0.004284148,0.502417,0.519964,0.017546952,8,18,0.009307981,0.0039510946,0.0750708,5.219352,6,7,train,0
0.5105649,0.511801,0.005034218,0.499518,0.519964,0.020445973,2,19,0.0143429935,0.004649832,0.08834681,5.214038,7,6,train,0
0.49447092,0.49446234,0.035129827,0.432273,0.558158,0.12588498,8,14,0.039519995,0.013415415,0.2548929,4.914712,2,2,train,1
0.49448282,0.49473628,0.035128195,0.432273,0.558158,0.12588498,8,14,0.039519995,0.013353856,0.25372326,4.914944,2,2,train,1
0.49437895,0.49407095,0.035127584,0.432273,0.558158,0.12588498,6,12,0.039519995,0.013489948,0.256309,4.9128895,2,2,train,1
0.49469605,0.493995,0.035197034,0.432273,0.558158,0.12588498,7,13,0.039519995,0.013656751,0.25947827,4.9192595,2,2,train,1
0.49393383,0.49270397,0.035156194,0.432273,0.558158,0.12588498,6,12,0.039519995,0.013670054,0.25973102,4.904132,2,3,train,1
0.49428463,0.493614,0.03512412,0.432273,0.558158,0.12588498,6,12,0.039519995,0.01317686,0.25036034,4.91102,1,2,train,1
0.49426955,0.493995,0.035133205,0.432273,0.558158,0.12588498,7,13,0.039519995,0.013528622,0.2570438,4.9107347,2,2,train,1
0.49458194,0.4944889,0.035141718,0.432273,0.558158,0.12588498,8,14,0.039519995,0.013520413,0.25688785,4.916924,2,3,train,1
0.49379188,0.49185044,0.035172217,0.432273,0.558158,0.12588498,6,12,0.039519995,0.013699384,0.2602883,4.90135,2,3,train,1
0.4950176,0.495368,0.035178926,0.432273,0.558158,0.12588498,7,13,0.039519995,0.013845895,0.263072,4.9255986,1,2,train,1
0.50987065,0.510199,0.0017612556,0.502264,0.510809,0.0085449815,1,0,0.0085449815,0.00068257673,0.012968957,5.1994233,7,5,train,0
0.5003581,0.500549,0.0003976451,0.499481,0.501007,0.0015260279,9,1,0.0010680258,0.00040163807,0.007631123,5.007167,4,5,train,0
0.49973997,0.499786,0.0005108604,0.498718,0.500701,0.0019830167,17,0,0.0010680258,0.0005301065,0.010072023,4.994807,8,7,train,0
0.5034096,0.499883,0.040041655,0.436346,0.571997,0.13565099,8,14,0.038147032,0.014528107,0.27603403,5.1004925,2,1,train,1
0.50431645,0.5048348,0.039928574,0.436346,0.571997,0.13565099,9,15,0.038147032,0.014349829,0.27264675,5.1185875,2,2,train,1
0.50236577,0.498602,0.040660948,0.436346,0.571997,0.13565099,7,13,0.038147032,0.014353422,0.27271503,5.080493,3,3,train,1
0.5047341,0.5043867,0.039893143,0.436346,0.571997,0.13565099,10,16,0.038147032,0.014537997,0.27622193,5.1269593,2,2,train,1
0.5023998,0.4970656,0.040348582,0.436346,0.571997,0.13565099,7,13,0.038147032,0.015347295,0.29159862,5.08067,3,2,train,1
0.5046126,0.50461507,0.039898437,0.436346,0.571997,0.13565099,10,16,0.038147032,0.014451846,0.27458507,5.1245165,2,2,train,1
0.5051255,0.507147,0.039894573,0.436346,0.571997,0.13565099,10,16,0.038147032,0.014737352,0.2800097,5.134867,3,3,train,1
0.5030115,0.50270486,0.040420093,0.436346,0.571997,0.13565099,8,14,0.038147032,0.015259536,0.28993118,5.0930867,2,3,train,1
0.5044303,0.507147,0.040160283,0.436346,0.571997,0.13565099,9,15,0.038147032,0.014137142,0.2686057,5.121256,3,2,train,1
0.5040964,0.50640064,0.040182997,0.436346,0.571997,0.13565099,9,15,0.038147032,0.014845557,0.28206557,5.1145587,3,3,train,1
0.49834394,0.498413,0.0019068389,0.494445,0.504211,0.009766012,1,0,0.009766012,0.0015100554,0.028691053,4.967006,6,6,train,0
0.49984503,0.49027532,0.03534594,0.439398,0.566656,0.127258,5,10,0.04257199,0.015085798,0.28663015,5.021887,4,4,train,1
0.5016564,0.49657208,0.035316154,0.439398,0.566656,0.127258,6,11,0.04257199,0.015419426,0.2929691,5.0581264,3,4,train,1
0.5052396,0.51131237,0.035092477,0.439398,0.566656,0.127258,10,15,0.04257199,0.014242809,0.27061337,5.1299696,3,3,train,1
0.49971956,0.49140528,0.03538027,0.439398,0.566656,0.127258,5,10,0.04257199,0.014622243,0.2778226,5.019429,4,4,train,1
0.5055644,0.50775576,0.034561224,0.439398,0.566656,0.127258,11,16,0.04257199,0.013514183,0.25676948,5.135797,3,4,train,1
0.5041143,0.50893164,0.03522663,0.439398,0.566656,0.127258,9,14,0.04257199,0.0149374185,0.28381094,5.1074433,4,4,train,1
0.505915,0.50907534,0.034725875,0.439398,0.566656,0.127258,11,16,0.04257199,0.015343767,0.29153156,5.1431165,4,4,train,1
0.50597894,0.5090574,0.034829237,0.439398,0.566656,0.127258,10,15,0.04257199,0.014881374,0.2827461,5.144555,3,4,train,1
0.50646293,0.5113772,0.03486385,0.439398,0.566656,0.127258,10,15,0.04257199,0.0145739755,0.27690554,5.154404,3,3,train,1
0.50264305,0.50248694,0.035331678,0.439398,0.566656,0.127258,7,12,0.04257199,0.01444983,0.27454677,5.0779667,2,3,train,1
0.49807677,0.498031,0.0023563649,0.492919,0.502227,0.00930801,10,19,0.0076300204,0.002642274,0.050203204,4.9617195,6,6,train,0
