sample_index,sample_id,source_split,t,input_quantized,membrane_before,input_contribution,recurrent_contribution,recurrent_contribution_raw,membrane_update_raw,membrane_after_update,threshold_result,reset_membrane,spike_count_state
0,train_0000,train,0,513,"[0,0,0,0,0,0,0,0,0,0,0,0,0,0,0,0,0,0,0,0,0,0,0,0,0,0,0,0,0,0,0,0,0,0,0,0,0,0,0,0,0,0,0,0,0,0,0,0,0,0,0,0,0,0,0,0,0,0,0,0,0,0,0,0]","[1539,769,1539,769,384,1539,1539,1539,384,769,769,1539,769,1539,769,384,769,384,1539,769,1539,769,1539,1539,1539,384,769,384,384,769,769,1539,769,769,769,384,384,769,384,769,769,1539,769,769,1539,1539,769,769,769,384,384,384,1539,769,769,1539,769,769,384,384,769,769,769,1539]","[0,0,0,0,0,0,0,0,0,0,0,0,0,0,0,0,0,0,0,0,0,0,0,0,0,0,0,0,0,0,0,0,0,0,0,0,0,0,0,0,0,0,0,0,0,0,0,0,0,0,0,0,0,0,0,0,0,0,0,0,0,0,0,0]","[0,0,0,0,0,0,0,0,0,0,0,0,0,0,0,0,0,0,0,0,0,0,0,0,0,0,0,0,0,0,0,0,0,0,0,0,0,0,0,0,0,0,0,0,0,0,0,0,0,0,0,0,0,0,0,0,0,0,0,0,0,0,0,0]","[1539,769,1539,769,384,1539,1539,1539,384,769,769,1539,769,1539,769,384,769,384,1539,769,1539,769,1539,1539,1539,384,769,384,384,769,769,1539,769,769,769,384,384,769,384,769,769,1539,769,769,1539,1539,769,769,769,384,384,384,1539,769,769,1539,769,769,384,384,769,769,769,1539]","[1539,769,1539,769,384,1539,1539,1539,384,769,769,1539,769,1539,769,384,769,384,1539,769,1539,769,1539,1539,1539,384,769,384,384,769,769,1539,769,769,769,384,384,769,384,769,769,1539,769,769,1539,1539,769,769,769,384,384,384,1539,769,769,1539,769,769,384,384,769,769,769,1539]","[""0"",""0"",""0"",""0"",""0"",""0"",""0"",""0"",""0"",""0"",""0"",""0"",""0"",""0"",""0"",""0"",""0"",""0"",""0"",""0"",""0"",""0"",""0"",""0"",""0"",""0"",""0"",""0"",""0"",""0"",""0"",""0"",""0"",""0"",""0"",""0"",""0"",""0"",""0"",""0"",""0"",""0"",""0"",""0"",""0"",""0"",""0"",""0"",""0"",""0"",""0"",""0"",""0"",""0"",""0"",""0"",""0"",""0"",""0"",""0"",""0"",""0"",""0"",""0""]","[1539,769,1539,769,384,1539,1539,1539,384,769,769,1539,769,1539,769,384,769,384,1539,769,1539,769,1539,1539,1539,384,769,384,384,769,769,1539,769,769,769,384,384,769,384,769,769,1539,769,769,1539,1539,769,769,769,384,384,384,1539,769,769,1539,769,769,384,384,769,769,769,1539]","[0,0,0,0,0,0,0,0,0,0,0,0,0,0,0,0,0,0,0,0,0,0,0,0,0,0,0,0,0,0,0,0,0,0,0,0,0,0,0,0,0,0,0,0,0,0,0,0,0,0,0,0,0,0,0,0,0,0,0,0,0,0,0,0]"
0,train_0000,train,1,513,"[1539,769,1539,769,384,1539,1539,1539,384,769,769,1539,769,1539,769,384,769,384,1539,769,1539,769,1539,1539,1539,384,769,384,384,769,769,1539,769,769,769,384,384,769,384,769,769,1539,769,769,1539,1539,769,769,769,384,384,384,1539,769,769,1539,769,769,384,384,769,769,769,1539]","[1539,769,1539,769,384,1539,1539,1539,384,769,769,1539,769,1539,769,384,769,384,1539,769,1539,769,1539,1539,1539,384,769,384,384,769,769,1539,769,769,769,384,384,769,384,769,769,1539,769,769,1539,1539,769,769,769,384,384,384,1539,769,769,1539,769,769,384,384,769,769,769,1539]","[0,0,0,0,0,0,0,0,0,0,0,0,0,0,0,0,0,0,0,0,0,0,0,0,0,0,0,0,0,0,0,0,0,0,0,0,0,0,0,0,0,0,0,0,0,0,0,0,0,0,0,0,0,0,0,0,0,0,0,0,0,0,0,0]","[0,0,0,0,0,0,0,0,0,0,0,0,0,0,0,0,0,0,0,0,0,0,0,0,0,0,0,0,0,0,0,0,0,0,0,0,0,0,0,0,0,0,0,0,0,0,0,0,0,0,0,0,0,0,0,0,0,0,0,0,0,0,0,0]","[2886,1442,2886,1442,720,2886,2886,2886,720,1442,1442,2886,1442,2886,1442,720,1442,720,2886,1442,2886,1442,2886,2886,2886,720,1442,720,720,1442,1442,2886,1442,1442,1442,720,720,1442,720,1442,1442,2886,1442,1442,2886,2886,1442,1442,1442,720,720,720,2886,1442,1442,2886,1442,1442,720,720,1442,1442,1442,2886]","[2886,1442,2886,1442,720,2886,2886,2886,720,1442,1442,2886,1442,2886,1442,720,1442,720,2886,1442,2886,1442,2886,2886,2886,720,1442,720,720,1442,1442,2886,1442,1442,1442,720,720,1442,720,1442,1442,2886,1442,1442,2886,2886,1442,1442,1442,720,720,720,2886,1442,1442,2886,1442,1442,720,720,1442,1442,1442,2886]","[""1"",""0"",""1"",""0"",""0"",""1"",""1"",""1"",""0"",""0"",""0"",""1"",""0"",""1"",""0"",""0"",""0"",""0"",""1"",""0"",""1"",""0"",""1"",""1"",""1"",""0"",""0"",""0"",""0"",""0"",""0"",""1"",""0"",""0"",""0"",""0"",""0"",""0"",""0"",""0"",""0"",""1"",""0"",""0"",""1"",""1"",""0"",""0"",""0"",""0"",""0"",""0"",""1"",""0"",""0"",""1"",""0"",""0"",""0"",""0"",""0"",""0"",""0"",""1""]","[0,1442,0,1442,720,0,0,0,720,1442,1442,0,1442,0,1442,720,1442,720,0,1442,0,1442,0,0,0,720,1442,720,720,1442,1442,0,1442,1442,1442,720,720,1442,720,1442,1442,0,1442,1442,0,0,1442,1442,1442,720,720,720,0,1442,1442,0,1442,1442,720,720,1442,1442,1442,0]","[1,0,1,0,0,1,1,1,0,0,0,1,0,1,0,0,0,0,1,0,1,0,1,1,1,0,0,0,0,0,0,1,0,0,0,0,0,0,0,0,0,1,0,0,1,1,0,0,0,0,0,0,1,0,0,1,0,0,0,0,0,0,0,1]"
0,train_0000,train,2,513,"[0,1442,0,1442,720,0,0,0,720,1442,1442,0,1442,0,1442,720,1442,720,0,1442,0,1442,0,0,0,720,1442,720,720,1442,1442,0,1442,1442,1442,720,720,1442,720,1442,1442,0,1442,1442,0,0,1442,1442,1442,720,720,720,0,1442,1442,0,1442,1442,720,720,1442,1442,1442,0]","[1539,769,1539,769,384,1539,1539,1539,384,769,769,1539,769,1539,769,384,769,384,1539,769,1539,769,1539,1539,1539,384,769,384,384,769,769,1539,769,769,769,384,384,769,384,769,769,1539,769,769,1539,1539,769,769,769,384,384,384,1539,769,769,1539,769,769,384,384,769,769,769,1539]","[128,-128,0,64,64,64,128,0,128,64,192,128,0,192,64,128,-64,64,0,0,64,128,128,-128,0,0,64,64,64,64,64,-64,64,128,256,128,64,0,64,128,-64,-64,0,128,0,128,128,128,64,128,-64,128,0,128,64,0,256,64,64,64,0,192,0,0]","[128,-128,0,64,64,64,128,0,128,64,192,128,0,192,64,128,-64,64,0,0,64,128,128,-128,0,0,64,64,64,64,64,-64,64,128,256,128,64,0,64,128,-64,-64,0,128,0,128,128,128,64,128,-64,128,0,128,64,0,256,64,64,64,0,192,0,0]","[1667,1903,1539,2095,1078,1603,1667,1539,1142,2095,2223,1667,2031,1731,2095,1142,1967,1078,1539,2031,1603,2159,1667,1411,1539,1014,2095,1078,1078,2095,2095,1475,2095,2159,2287,1142,1078,2031,1078,2159,1967,1475,2031,2159,1539,1667,2159,2159,2095,1142,950,1142,1539,2159,2095,1539,2287,2095,1078,1078,2031,2223,2031,1539]","[1667,1903,1539,2095,1078,1603,1667,1539,1142,2095,2223,1667,2031,1731,2095,1142,1967,1078,1539,2031,1603,2159,1667,1411,1539,1014,2095,1078,1078,2095,2095,1475,2095,2159,2287,1142,1078,2031,1078,2159,1967,1475,2031,2159,1539,1667,2159,2159,2095,1142,950,1142,1539,2159,2095,1539,2287,2095,1078,1078,2031,2223,2031,1539]","[""0"",""0"",""0"",""0"",""0"",""0"",""0"",""0"",""0"",""0"",""0"",""0"",""0"",""0"",""0"",""0"",""0"",""0"",""0"",""0"",""0"",""0"",""0"",""0"",""0"",""0"",""0"",""0"",""0"",""0"",""0"",""0"",""0"",""0"",""0"",""0"",""0"",""0"",""0"",""0"",""0"",""0"",""0"",""0"",""0"",""0"",""0"",""0"",""0"",""0"",""0"",""0"",""0"",""0"",""0"",""0"",""0"",""0"",""0"",""0"",""0"",""0"",""0"",""0""]","[1667,1903,1539,2095,1078,1603,1667,1539,1142,2095,2223,1667,2031,1731,2095,1142,1967,1078,1539,2031,1603,2159,1667,1411,1539,1014,2095,1078,1078,2095,2095,1475,2095,2159,2287,1142,1078,2031,1078,2159,1967,1475,2031,2159,1539,1667,2159,2159,2095,1142,950,1142,1539,2159,2095,1539,2287,2095,1078,1078,2031,2223,2031,1539]","[1,0,1,0,0,1,1,1,0,0,0,1,0,1,0,0,0,0,1,0,1,0,1,1,1,0,0,0,0,0,0,1,0,0,0,0,0,0,0,0,0,1,0,0,1,1,0,0,0,0,0,0,1,0,0,1,0,0,0,0,0,0,0,1]"
0,train_0000,train,3,513,"[1667,1903,1539,2095,1078,1603,1667,1539,1142,2095,2223,1667,2031,1731,2095,1142,1967,1078,1539,2031,1603,2159,1667,1411,1539,1014,2095,1078,1078,2095,2095,1475,2095,2159,2287,1142,1078,2031,1078,2159,1967,1475,2031,2159,1539,1667,2159,2159,2095,1142,950,1142,1539,2159,2095,1539,2287,2095,1078,1078,2031,2223,2031,1539]","[1539,769,1539,769,384,1539,1539,1539,384,769,769,1539,769,1539,769,384,769,384,1539,769,1539,769,1539,1539,1539,384,769,384,384,769,769,1539,769,769,769,384,384,769,384,769,769,1539,769,769,1539,1539,769,769,769,384,384,384,1539,769,769,1539,769,769,384,384,769,769,769,1539]","[0,0,0,0,0,0,0,0,0,0,0,0,0,0,0,0,0,0,0,0,0,0,0,0,0,0,0,0,0,0,0,0,0,0,0,0,0,0,0,0,0,0,0,0,0,0,0,0,0,0,0,0,0,0,0,0,0,0,0,0,0,0,0,0]","[0,0,0,0,0,0,0,0,0,0,0,0,0,0,0,0,0,0,0,0,0,0,0,0,0,0,0,0,0,0,0,0,0,0,0,0,0,0,0,0,0,0,0,0,0,0,0,0,0,0,0,0,0,0,0,0,0,0,0,0,0,0,0,0]","[2998,2435,2886,2603,1328,2942,2998,2886,1384,2603,2715,2998,2547,3054,2603,1384,2491,1328,2886,2547,2942,2659,2998,2774,2886,1272,2603,1328,1328,2603,2603,2830,2603,2659,2771,1384,1328,2547,1328,2659,2491,2830,2547,2659,2886,2998,2659,2659,2603,1384,1216,1384,2886,2659,2603,2886,2771,2603,1328,1328,2547,2715,2547,2886]","[2998,2435,2886,2603,1328,2942,2998,2886,1384,2603,2715,2998,2547,3054,2603,1384,2491,1328,2886,2547,2942,2659,2998,2774,2886,1272,2603,1328,1328,2603,2603,2830,2603,2659,2771,1384,1328,2547,1328,2659,2491,2830,2547,2659,2886,2998,2659,2659,2603,1384,1216,1384,2886,2659,2603,2886,2771,2603,1328,1328,2547,2715,2547,2886]","[""1"",""0"",""1"",""1"",""0"",""1"",""1"",""1"",""0"",""1"",""1"",""1"",""0"",""1"",""1"",""0"",""0"",""0"",""1"",""0"",""1"",""1"",""1"",""1"",""1"",""0"",""1"",""0"",""0"",""1"",""1"",""1"",""1"",""1"",""1"",""0"",""0"",""0"",""0"",""1"",""0"",""1"",""0"",""1"",""1"",""1"",""1"",""1"",""1"",""0"",""0"",""0"",""1"",""1"",""1"",""1"",""1"",""1"",""0"",""0"",""0"",""1"",""0"",""1""]","[0,2435,0,0,1328,0,0,0,1384,0,0,0,2547,0,0,1384,2491,1328,0,2547,0,0,0,0,0,1272,0,1328,1328,0,0,0,0,0,0,1384,1328,2547,1328,0,2491,0,2547,0,0,0,0,0,0,1384,1216,1384,0,0,0,0,0,0,1328,1328,2547,0,2547,0]","[2,0,2,1,0,2,2,2,0,1,1,2,0,2,1,0,0,0,2,0,2,1,2,2,2,0,1,0,0,1,1,2,1,1,1,0,0,0,0,1,0,2,0,1,2,2,1,1,1,0,0,0,2,1,1,2,1,1,0,0,0,1,0,2]"
0,train_0000,train,4,513,"[0,2435,0,0,1328,0,0,0,1384,0,0,0,2547,0,0,1384,2491,1328,0,2547,0,0,0,0,0,1272,0,1328,1328,0,0,0,0,0,0,1384,1328,2547,1328,0,2491,0,2547,0,0,0,0,0,0,1384,1216,1384,0,0,0,0,0,0,1328,1328,2547,0,2547,0]","[1539,769,1539,769,384,1539,1539,1539,384,769,769,1539,769,1539,769,384,769,384,1539,769,1539,769,1539,1539,1539,384,769,384,384,769,769,1539,769,769,769,384,384,769,384,769,769,1539,769,769,1539,1539,769,769,769,384,384,384,1539,769,769,1539,769,769,384,384,769,769,769,1539]","[192,0,128,192,192,256,128,64,128,64,256,64,0,192,64,128,-64,0,128,128,192,128,192,-64,0,128,192,64,192,64,320,-64,192,256,192,256,128,192,0,192,0,0,192,256,-64,128,320,192,320,192,128,128,192,192,128,128,256,128,64,128,192,192,64,256]","[192,0,128,192,192,256,128,64,128,64,256,64,0,192,64,128,-64,0,128,128,192,128,192,-64,0,128,192,64,192,64,320,-64,192,256,192,256,128,192,0,192,0,0,192,256,-64,128,320,192,320,192,128,128,192,192,128,128,256,128,64,128,192,192,64,256]","[1731,2900,1667,961,1738,1795,1667,1603,1723,833,1025,1603,2998,1731,833,1723,2885,1546,1667,3126,1731,897,1731,1475,1539,1625,961,1610,1738,833,1089,1475,961,1025,961,1851,1674,3190,1546,961,2949,1539,3190,1025,1475,1667,1089,961,1089,1787,1576,1723,1731,961,897,1667,1025,897,1610,1674,3190,961,3062,1795]","[1731,2900,1667,961,1738,1795,1667,1603,1723,833,1025,1603,2998,1731,833,1723,2885,1546,1667,3126,1731,897,1731,1475,1539,1625,961,1610,1738,833,1089,1475,961,1025,961,1851,1674,3190,1546,961,2949,1539,3190,1025,1475,1667,1089,961,1089,1787,1576,1723,1731,961,897,1667,1025,897,1610,1674,3190,961,3062,1795]","[""0"",""1"",""0"",""0"",""0"",""0"",""0"",""0"",""0"",""0"",""0"",""0"",""1"",""0"",""0"",""0"",""1"",""0"",""0"",""1"",""0"",""0"",""0"",""0"",""0"",""0"",""0"",""0"",""0"",""0"",""0"",""0"",""0"",""0"",""0"",""0"",""0"",""1"",""0"",""0"",""1"",""0"",""1"",""0"",""0"",""0"",""0"",""0"",""0"",""0"",""0"",""0"",""0"",""0"",""0"",""0"",""0"",""0"",""0"",""0"",""1"",""0"",""1"",""0""]","[1731,0,1667,961,1738,1795,1667,1603,1723,833,1025,1603,0,1731,833,1723,0,1546,1667,0,1731,897,1731,1475,1539,1625,961,1610,1738,833,1089,1475,961,1025,961,1851,1674,0,1546,961,0,1539,0,1025,1475,1667,1089,961,1089,1787,1576,1723,1731,961,897,1667,1025,897,1610,1674,0,961,0,1795]","[2,1,2,1,0,2,2,2,0,1,1,2,1,2,1,0,1,0,2,1,2,1,2,2,2,0,1,0,0,1,1,2,1,1,1,0,0,1,0,1,1,2,1,1,2,2,1,1,1,0,0,0,2,1,1,2,1,1,0,0,1,1,1,2]"
0,train_0000,train,5,512,"[1731,0,1667,961,1738,1795,1667,1603,1723,833,1025,1603,0,1731,833,1723,0,1546,1667,0,1731,897,1731,1475,1539,1625,961,1610,1738,833,1089,1475,961,1025,961,1851,1674,0,1546,961,0,1539,0,1025,1475,1667,1089,961,1089,1787,1576,1723,1731,961,897,1667,1025,897,1610,1674,0,961,0,1795]","[1536,768,1536,768,384,1536,1536,1536,384,768,768,1536,768,1536,768,384,768,384,1536,768,1536,768,1536,1536,1536,384,768,384,384,768,768,1536,768,768,768,384,384,768,384,768,768,1536,768,768,1536,1536,768,768,768,384,384,384,1536,768,768,1536,768,768,384,384,768,768,768,1536]","[-64,0,64,0,64,64,64,64,0,128,0,64,0,0,128,-64,64,0,64,-64,0,64,64,0,0,64,-64,0,128,128,0,0,0,0,64,192,128,64,192,0,0,-64,192,0,-64,192,64,-64,128,128,128,0,-192,0,0,64,128,0,64,64,0,-64,64,0]","[-64,0,64,0,64,64,64,64,0,128,0,64,0,0,128,-64,64,0,64,-64,0,64,64,0,0,64,-64,0,128,128,0,0,0,0,64,192,128,64,192,0,0,-64,192,0,-64,192,64,-64,128,128,128,0,-192,0,0,64,128,0,64,64,0,-64,64,0]","[2987,768,3059,1609,1969,3171,3059,3003,1892,1625,1665,3003,768,3051,1625,1828,832,1737,3059,704,3051,1617,3115,2827,2883,1870,1545,1793,2033,1625,1721,2827,1609,1665,1673,2196,1977,832,1929,1609,768,2819,960,1665,2763,3187,1785,1545,1849,2076,1891,1892,2859,1609,1553,3059,1793,1553,1857,1913,768,1545,832,3107]","[2987,768,3059,1609,1969,3171,3059,3003,1892,1625,1665,3003,768,3051,1625,1828,832,1737,3059,704,3051,1617,3115,2827,2883,1870,1545,1793,2033,1625,1721,2827,1609,1665,1673,2196,1977,832,1929,1609,768,2819,960,1665,2763,3187,1785,1545,1849,2076,1891,1892,2859,1609,1553,3059,1793,1553,1857,1913,768,1545,832,3107]","[""1"",""0"",""1"",""0"",""0"",""1"",""1"",""1"",""0"",""0"",""0"",""1"",""0"",""1"",""0"",""0"",""0"",""0"",""1"",""0"",""1"",""0"",""1"",""1"",""1"",""0"",""0"",""0"",""0"",""0"",""0"",""1"",""0"",""0"",""0"",""0"",""0"",""0"",""0"",""0"",""0"",""1"",""0"",""0"",""1"",""1"",""0"",""0"",""0"",""0"",""0"",""0"",""1"",""0"",""0"",""1"",""0"",""0"",""0"",""0"",""0"",""0"",""0"",""1""]","[0,768,0,1609,1969,0,0,0,1892,1625,1665,0,768,0,1625,1828,832,1737,0,704,0,1617,0,0,0,1870,1545,1793,2033,1625,1721,0,1609,1665,1673,2196,1977,832,1929,1609,768,0,960,1665,0,0,1785,1545,1849,2076,1891,1892,0,1609,1553,0,1793,1553,1857,1913,768,1545,832,0]","[3,1,3,1,0,3,3,3,0,1,1,3,1,3,1,0,1,0,3,1,3,1,3,3,3,0,1,0,0,1,1,3,1,1,1,0,0,1,0,1,1,3,1,1,3,3,1,1,1,0,0,0,3,1,1,3,1,1,0,0,1,1,1,3]"
0,train_0000,train,6,512,"[0,768,0,1609,1969,0,0,0,1892,1625,1665,0,768,0,1625,1828,832,1737,0,704,0,1617,0,0,0,1870,1545,1793,2033,1625,1721,0,1609,1665,1673,2196,1977,832,1929,1609,768,0,960,1665,0,0,1785,1545,1849,2076,1891,1892,0,1609,1553,0,1793,1553,1857,1913,768,1545,832,0]","[1536,768,1536,768,384,1536,1536,1536,384,768,768,1536,768,1536,768,384,768,384,1536,768,1536,768,1536,1536,1536,384,768,384,384,768,768,1536,768,768,768,384,384,768,384,768,768,1536,768,768,1536,1536,768,768,768,384,384,384,1536,768,768,1536,768,768,384,384,768,768,768,1536]","[128,-128,0,64,64,64,128,0,128,64,192,128,0,192,64,128,-64,64,0,0,64,128,128,-128,0,0,64,64,64,64,64,-64,64,128,256,128,64,0,64,128,-64,-64,0,128,0,128,128,128,64,128,-64,128,0,128,64,0,256,64,64,64,0,192,0,0]","[128,-128,0,64,64,64,128,0,128,64,192,128,0,192,64,128,-64,64,0,0,64,128,128,-128,0,0,64,64,64,64,64,-64,64,128,256,128,64,0,64,128,-64,-64,0,128,0,128,128,128,64,128,-64,128,0,128,64,0,256,64,64,64,0,192,0,0]","[1664,1312,1536,2240,2171,1600,1664,1536,2168,2254,2417,1664,1440,1728,2254,2112,1432,1968,1536,1384,1600,2311,1664,1408,1536,2021,2184,2017,2227,2254,2338,1472,2240,2353,2488,2434,2178,1496,2136,2304,1376,1472,1608,2353,1536,1664,2458,2248,2450,2329,1975,2168,1536,2304,2191,1536,2593,2191,2073,2122,1440,2312,1496,1536]","[1664,1312,1536,2240,2171,1600,1664,1536,2168,2254,2417,1664,1440,1728,2254,2112,1432,1968,1536,1384,1600,2311,1664,1408,1536,2021,2184,2017,2227,2254,2338,1472,2240,2353,2488,2434,2178,1496,2136,2304,1376,1472,1608,2353,1536,1664,2458,2248,2450,2329,1975,2168,1536,2304,2191,1536,2593,2191,2073,2122,1440,2312,1496,1536]","[""0"",""0"",""0"",""0"",""0"",""0"",""0"",""0"",""0"",""0"",""0"",""0"",""0"",""0"",""0"",""0"",""0"",""0"",""0"",""0"",""0"",""0"",""0"",""0"",""0"",""0"",""0"",""0"",""0"",""0"",""0"",""0"",""0"",""0"",""0"",""0"",""0"",""0"",""0"",""0"",""0"",""0"",""0"",""0"",""0"",""0"",""0"",""0"",""0"",""0"",""0"",""0"",""0"",""0"",""0"",""0"",""1"",""0"",""0"",""0"",""0"",""0"",""0"",""0""]","[1664,1312,1536,2240,2171,1600,1664,1536,2168,2254,2417,1664,1440,1728,2254,2112,1432,1968,1536,1384,1600,2311,1664,1408,1536,2021,2184,2017,2227,2254,2338,1472,2240,2353,2488,2434,2178,1496,2136,2304,1376,1472,1608,2353,1536,1664,2458,2248,2450,2329,1975,2168,1536,2304,2191,1536,0,2191,2073,2122,1440,2312,1496,1536]","[3,1,3,1,0,3,3,3,0,1,1,3,1,3,1,0,1,0,3,1,3,1,3,3,3,0,1,0,0,1,1,3,1,1,1,0,0,1,0,1,1,3,1,1,3,3,1,1,1,0,0,0,3,1,1,3,2,1,0,0,1,1,1,3]"
0,train_0000,train,7,513,"[1664,1312,1536,2240,2171,1600,1664,1536,2168,2254,2417,1664,1440,1728,2254,2112,1432,1968,1536,1384,1600,2311,1664,1408,1536,2021,2184,2017,2227,2254,2338,1472,2240,2353,2488,2434,2178,1496,2136,2304,1376,1472,1608,2353,1536,1664,2458,2248,2450,2329,1975,2168,1536,2304,2191,1536,0,2191,2073,2122,1440,2312,1496,1536]","[1539,769,1539,769,384,1539,1539,1539,384,769,769,1539,769,1539,769,384,769,384,1539,769,1539,769,1539,1539,1539,384,769,384,384,769,769,1539,769,769,769,384,384,769,384,769,769,1539,769,769,1539,1539,769,769,769,384,384,384,1539,769,769,1539,769,769,384,384,769,769,769,1539]","[0,0,0,0,0,0,0,0,64,0,0,0,0,0,0,0,0,0,0,0,0,0,0,0,0,64,0,0,0,0,0,0,0,64,0,0,0,0,0,0,0,0,0,64,0,0,0,0,0,0,64,0,0,0,0,0,0,0,0,0,0,0,64,0]","[0,0,0,0,0,0,0,0,64,0,0,0,0,0,0,0,0,0,0,0,0,0,0,0,0,64,0,0,0,0,0,0,0,64,0,0,0,0,0,0,0,0,0,64,0,0,0,0,0,0,64,0,0,0,0,0,0,0,0,0,0,0,64,0]","[2995,1917,2883,2729,2284,2939,2995,2883,2345,2742,2884,2995,2029,3051,2742,2232,2022,2106,2883,1980,2939,2792,2995,2771,2883,2217,2680,2149,2333,2742,2815,2827,2729,2892,2946,2514,2290,2078,2253,2785,1973,2827,2176,2892,2883,2995,2920,2736,2913,2422,2177,2281,2883,2785,2687,2883,769,2687,2198,2241,2029,2792,2142,2883]","[2995,1917,2883,2729,2284,2939,2995,2883,2345,2742,2884,2995,2029,3051,2742,2232,2022,2106,2883,1980,2939,2792,2995,2771,2883,2217,2680,2149,2333,2742,2815,2827,2729,2892,2946,2514,2290,2078,2253,2785,1973,2827,2176,2892,2883,2995,2920,2736,2913,2422,2177,2281,2883,2785,2687,2883,769,2687,2198,2241,2029,2792,2142,2883]","[""1"",""0"",""1"",""1"",""0"",""1"",""1"",""1"",""0"",""1"",""1"",""1"",""0"",""1"",""1"",""0"",""0"",""0"",""1"",""0"",""1"",""1"",""1"",""1"",""1"",""0"",""1"",""0"",""0"",""1"",""1"",""1"",""1"",""1"",""1"",""0"",""0"",""0"",""0"",""1"",""0"",""1"",""0"",""1"",""1"",""1"",""1"",""1"",""1"",""0"",""0"",""0"",""1"",""1"",""1"",""1"",""0"",""1"",""0"",""0"",""0"",""1"",""0"",""1""]","[0,1917,0,0,2284,0,0,0,2345,0,0,0,2029,0,0,2232,2022,2106,0,1980,0,0,0,0,0,2217,0,2149,2333,0,0,0,0,0,0,2514,2290,2078,2253,0,1973,0,2176,0,0,0,0,0,0,2422,2177,2281,0,0,0,0,769,0,2198,2241,2029,0,2142,0]","[4,1,4,2,0,4,4,4,0,2,2,4,1,4,2,0,1,0,4,1,4,2,4,4,4,0,2,0,0,2,2,4,2,2,2,0,0,1,0,2,1,4,1,2,4,4,2,2,2,0,0,0,4,2,2,4,2,2,0,0,1,2,1,4]"
0,train_0000,train,8,512,"[0,1917,0,0,2284,0,0,0,2345,0,0,0,2029,0,0,2232,2022,2106,0,1980,0,0,0,0,0,2217,0,2149,2333,0,0,0,0,0,0,2514,2290,2078,2253,0,1973,0,2176,0,0,0,0,0,0,2422,2177,2281,0,0,0,0,769,0,2198,2241,2029,0,2142,0]","[1536,768,1536,768,384,1536,1536,1536,384,768,768,1536,768,1536,768,384,768,384,1536,768,1536,768,1536,1536,1536,384,768,384,384,768,768,1536,768,768,768,384,384,768,384,768,768,1536,768,768,1536,1536,768,768,768,384,384,384,1536,768,768,1536,768,768,384,384,768,768,768,1536]","[192,0,128,192,192,256,128,64,64,64,256,64,0,192,64,128,-64,0,128,128,192,128,192,-64,0,64,192,64,192,64,320,-64,192,192,192,256,128,192,0,192,0,0,192,192,-64,128,320,192,320,192,64,128,192,192,128,128,256,128,64,128,192,192,0,256]","[192,0,128,192,192,256,128,64,64,64,256,64,0,192,64,128,-64,0,128,128,192,128,192,-64,0,64,192,64,192,64,320,-64,192,192,192,256,128,192,0,192,0,0,192,192,-64,128,320,192,320,192,64,128,192,192,128,128,256,128,64,128,192,192,0,256]","[1728,2446,1664,960,2575,1792,1664,1600,2500,832,1024,1600,2544,1728,832,2465,2474,2227,1664,2629,1728,896,1728,1472,1536,2388,960,2329,2618,832,1088,1472,960,960,960,2840,2516,2779,2356,960,2495,1536,2864,960,1472,1664,1088,960,1088,2696,2353,2508,1728,960,896,1664,1697,896,2372,2473,2736,960,2643,1792]","[1728,2446,1664,960,2575,1792,1664,1600,2500,832,1024,1600,2544,1728,832,2465,2474,2227,1664,2629,1728,896,1728,1472,1536,2388,960,2329,2618,832,1088,1472,960,960,960,2840,2516,2779,2356,960,2495,1536,2864,960,1472,1664,1088,960,1088,2696,2353,2508,1728,960,896,1664,1697,896,2372,2473,2736,960,2643,1792]","[""0"",""0"",""0"",""0"",""1"",""0"",""0"",""0"",""0"",""0"",""0"",""0"",""0"",""0"",""0"",""0"",""0"",""0"",""0"",""1"",""0"",""0"",""0"",""0"",""0"",""0"",""0"",""0"",""1"",""0"",""0"",""0"",""0"",""0"",""0"",""1"",""0"",""1"",""0"",""0"",""0"",""0"",""1"",""0"",""0"",""0"",""0"",""0"",""0"",""1"",""0"",""0"",""0"",""0"",""0"",""0"",""0"",""0"",""0"",""0"",""1"",""0"",""1"",""0""]","[1728,2446,1664,960,0,1792,1664,1600,2500,832,1024,1600,2544,1728,832,2465,2474,2227,1664,0,1728,896,1728,1472,1536,2388,960,2329,0,832,1088,1472,960,960,960,0,2516,0,2356,960,2495,1536,0,960,1472,1664,1088,960,1088,0,2353,2508,1728,960,896,1664,1697,896,2372,2473,0,960,0,1792]","[4,1,4,2,1,4,4,4,0,2,2,4,1,4,2,0,1,0,4,2,4,2,4,4,4,0,2,0,1,2,2,4,2,2,2,1,0,2,0,2,1,4,2,2,4,4,2,2,2,1,0,0,4,2,2,4,2,2,0,0,2,2,2,4]"
0,train_0000,train,9,513,"[1728,2446,1664,960,0,1792,1664,1600,2500,832,1024,1600,2544,1728,832,2465,2474,2227,1664,0,1728,896,1728,1472,1536,2388,960,2329,0,832,1088,1472,960,960,960,0,2516,0,2356,960,2495,1536,0,960,1472,1664,1088,960,1088,0,2353,2508,1728,960,896,1664,1697,896,2372,2473,0,960,0,1792]","[1539,769,1539,769,384,1539,1539,1539,384,769,769,1539,769,1539,769,384,769,384,1539,769,1539,769,1539,1539,1539,384,769,384,384,769,769,1539,769,769,769,384,384,769,384,769,769,1539,769,769,1539,1539,769,769,769,384,384,384,1539,769,769,1539,769,769,384,384,769,769,769,1539]","[0,64,0,0,0,128,64,0,0,64,0,128,0,0,64,0,0,64,0,-64,64,0,64,0,-64,128,0,0,128,192,0,0,-64,0,-64,128,64,64,256,0,0,-64,64,0,0,128,64,-64,0,128,192,64,-64,64,0,64,192,0,192,64,64,64,64,0]","[0,64,0,0,0,128,64,0,0,64,0,128,0,0,64,0,0,64,0,-64,64,0,64,0,-64,128,0,0,128,192,0,0,-64,0,-64,128,64,64,256,0,0,-64,64,0,0,128,64,-64,0,128,192,64,-64,64,0,64,192,0,192,64,64,64,64,0]","[3051,2974,2995,1609,384,3235,3059,2939,2572,1561,1665,3067,2995,3051,1561,2541,2934,2397,2995,705,3115,1553,3115,2827,2819,2602,1609,2422,512,1689,1721,2827,1545,1609,1545,512,2650,833,2702,1609,2953,2819,833,1609,2827,3123,1785,1545,1721,512,2635,2643,2987,1673,1553,3059,2446,1553,2652,2612,833,1673,833,3107]","[3051,2974,2995,1609,384,3235,3059,2939,2572,1561,1665,3067,2995,3051,1561,2541,2934,2397,2995,705,3115,1553,3115,2827,2819,2602,1609,2422,512,1689,1721,2827,1545,1609,1545,512,2650,833,2702,1609,2953,2819,833,1609,2827,3123,1785,1545,1721,512,2635,2643,2987,1673,1553,3059,2446,1553,2652,2612,833,1673,833,3107]","[""1"",""1"",""1"",""0"",""0"",""1"",""1"",""1"",""1"",""0"",""0"",""1"",""1"",""1"",""0"",""0"",""1"",""0"",""1"",""0"",""1"",""0"",""1"",""1"",""1"",""1"",""0"",""0"",""0"",""0"",""0"",""1"",""0"",""0"",""0"",""0"",""1"",""0"",""1"",""0"",""1"",""1"",""0"",""0"",""1"",""1"",""0"",""0"",""0"",""0"",""1"",""1"",""1"",""0"",""0"",""1"",""0"",""0"",""1"",""1"",""0"",""0"",""0"",""1""]","[0,0,0,1609,384,0,0,0,0,1561,1665,0,0,0,1561,2541,0,2397,0,705,0,1553,0,0,0,0,1609,2422,512,1689,1721,0,1545,1609,1545,512,0,833,0,1609,0,0,833,1609,0,0,1785,1545,1721,512,0,0,0,1673,1553,0,2446,1553,0,0,833,1673,833,0]","[5,2,5,2,1,5,5,5,1,2,2,5,2,5,2,0,2,0,5,2,5,2,5,5,5,1,2,0,1,2,2,5,2,2,2,1,1,2,1,2,2,5,2,2,5,5,2,2,2,1,1,1,5,2,2,5,2,2,1,1,2,2,2,5]"
0,train_0000,train,10,512,"[0,0,0,1609,384,0,0,0,0,1561,1665,0,0,0,1561,2541,0,2397,0,705,0,1553,0,0,0,0,1609,2422,512,1689,1721,0,1545,1609,1545,512,0,833,0,1609,0,0,833,1609,0,0,1785,1545,1721,512,0,0,0,1673,1553,0,2446,1553,0,0,833,1673,833,0]","[1536,768,1536,768,384,1536,1536,1536,384,768,768,1536,768,1536,768,384,768,384,1536,768,1536,768,1536,1536,1536,384,768,384,384,768,768,1536,768,768,768,384,384,768,384,768,768,1536,768,768,1536,1536,768,768,768,384,384,384,1536,768,768,1536,768,768,384,384,768,768,768,1536]","[192,-192,64,0,128,192,192,0,256,128,64,192,128,192,64,64,64,128,0,64,64,128,128,-128,128,0,64,64,0,128,128,-64,128,64,384,192,64,0,64,192,-64,-64,256,128,64,128,128,128,128,192,0,128,-64,128,128,64,320,192,64,192,128,128,0,0]","[192,-192,64,0,128,192,192,0,256,128,64,192,128,192,64,64,64,128,0,64,64,128,128,-128,128,0,64,64,0,128,128,-64,128,64,384,192,64,0,64,192,-64,-64,256,128,64,128,128,128,128,192,0,128,-64,128,128,64,320,192,64,192,128,128,0,0]","[1728,576,1600,2176,848,1728,1728,1536,640,2262,2289,1728,896,1728,2198,2672,832,2610,1536,1449,1600,2255,1664,1408,1664,384,2240,2568,832,2374,2402,1472,2248,2240,2504,1024,448,1497,448,2368,704,1472,1753,2304,1600,1664,2458,2248,2402,1024,384,512,1472,2360,2255,1600,3229,2319,448,576,1625,2360,1497,1536]","[1728,576,1600,2176,848,1728,1728,1536,640,2262,2289,1728,896,1728,2198,2672,832,2610,1536,1449,1600,2255,1664,1408,1664,384,2240,2568,832,2374,2402,1472,2248,2240,2504,1024,448,1497,448,2368,704,1472,1753,2304,1600,1664,2458,2248,2402,1024,384,512,1472,2360,2255,1600,3229,2319,448,576,1625,2360,1497,1536]","[""0"",""0"",""0"",""0"",""0"",""0"",""0"",""0"",""0"",""0"",""0"",""0"",""0"",""0"",""0"",""1"",""0"",""1"",""0"",""0"",""0"",""0"",""0"",""0"",""0"",""0"",""0"",""1"",""0"",""0"",""0"",""0"",""0"",""0"",""0"",""0"",""0"",""0"",""0"",""0"",""0"",""0"",""0"",""0"",""0"",""0"",""0"",""0"",""0"",""0"",""0"",""0"",""0"",""0"",""0"",""0"",""1"",""0"",""0"",""0"",""0"",""0"",""0"",""0""]","[1728,576,1600,2176,848,1728,1728,1536,640,2262,2289,1728,896,1728,2198,0,832,0,1536,1449,1600,2255,1664,1408,1664,384,2240,0,832,2374,2402,1472,2248,2240,2504,1024,448,1497,448,2368,704,1472,1753,2304,1600,1664,2458,2248,2402,1024,384,512,1472,2360,2255,1600,0,2319,448,576,1625,2360,1497,1536]","[5,2,5,2,1,5,5,5,1,2,2,5,2,5,2,1,2,1,5,2,5,2,5,5,5,1,2,1,1,2,2,5,2,2,2,1,1,2,1,2,2,5,2,2,5,5,2,2,2,1,1,1,5,2,2,5,3,2,1,1,2,2,2,5]"
0,train_0000,train,11,513,"[1728,576,1600,2176,848,1728,1728,1536,640,2262,2289,1728,896,1728,2198,0,832,0,1536,1449,1600,2255,1664,1408,1664,384,2240,0,832,2374,2402,1472,2248,2240,2504,1024,448,1497,448,2368,704,1472,1753,2304,1600,1664,2458,2248,2402,1024,384,512,1472,2360,2255,1600,0,2319,448,576,1625,2360,1497,1536]","[1539,769,1539,769,384,1539,1539,1539,384,769,769,1539,769,1539,769,384,769,384,1539,769,1539,769,1539,1539,1539,384,769,384,384,769,769,1539,769,769,769,384,384,769,384,769,769,1539,769,769,1539,1539,769,769,769,384,384,384,1539,769,769,1539,769,769,384,384,769,769,769,1539]","[0,0,0,0,0,0,0,0,64,0,64,0,0,0,-64,0,64,0,64,0,0,0,0,0,0,64,0,64,0,0,0,64,-64,128,0,64,64,0,-64,0,0,0,0,64,128,0,0,0,0,64,128,0,0,0,0,0,0,0,0,0,0,0,64,0]","[0,0,0,0,0,0,0,0,64,0,64,0,0,0,-64,0,64,0,64,0,0,0,0,0,0,64,0,64,0,0,0,64,-64,128,0,64,64,0,-64,0,0,0,0,64,128,0,0,0,0,64,128,0,0,0,0,0,0,0,0,0,0,0,64,0]","[3051,1273,2939,2673,1126,3051,3051,2883,1008,2749,2836,3051,1553,3051,2629,384,1561,384,2947,2037,2939,2743,2995,2771,2995,784,2729,448,1112,2847,2871,2891,2672,2857,2960,1344,840,2079,712,2841,1385,2827,2303,2849,3067,2995,2920,2736,2871,1344,848,832,2827,2834,2743,2939,769,2799,776,888,2191,2834,2143,2883]","[3051,1273,2939,2673,1126,3051,3051,2883,1008,2749,2836,3051,1553,3051,2629,384,1561,384,2947,2037,2939,2743,2995,2771,2995,784,2729,448,1112,2847,2871,2891,2672,2857,2960,1344,840,2079,712,2841,1385,2827,2303,2849,3067,2995,2920,2736,2871,1344,848,832,2827,2834,2743,2939,769,2799,776,888,2191,2834,2143,2883]","[""1"",""0"",""1"",""1"",""0"",""1"",""1"",""1"",""0"",""1"",""1"",""1"",""0"",""1"",""1"",""0"",""0"",""0"",""1"",""0"",""1"",""1"",""1"",""1"",""1"",""0"",""1"",""0"",""0"",""1"",""1"",""1"",""1"",""1"",""1"",""0"",""0"",""0"",""0"",""1"",""0"",""1"",""0"",""1"",""1"",""1"",""1"",""1"",""1"",""0"",""0"",""0"",""1"",""1"",""1"",""1"",""0"",""1"",""0"",""0"",""0"",""1"",""0"",""1""]","[0,1273,0,0,1126,0,0,0,1008,0,0,0,1553,0,0,384,1561,384,0,2037,0,0,0,0,0,784,0,448,1112,0,0,0,0,0,0,1344,840,2079,712,0,1385,0,2303,0,0,0,0,0,0,1344,848,832,0,0,0,0,769,0,776,888,2191,0,2143,0]","[6,2,6,3,1,6,6,6,1,3,3,6,2,6,3,1,2,1,6,2,6,3,6,6,6,1,3,1,1,3,3,6,3,3,3,1,1,2,1,3,2,6,2,3,6,6,3,3,3,1,1,1,6,3,3,6,3,3,1,1,2,3,2,6]"
0,train_0000,train,12,512,"[0,1273,0,0,1126,0,0,0,1008,0,0,0,1553,0,0,384,1561,384,0,2037,0,0,0,0,0,784,0,448,1112,0,0,0,0,0,0,1344,840,2079,712,0,1385,0,2303,0,0,0,0,0,0,1344,848,832,0,0,0,0,769,0,776,888,2191,0,2143,0]","[1536,768,1536,768,384,1536,1536,1536,384,768,768,1536,768,1536,768,384,768,384,1536,768,1536,768,1536,1536,1536,384,768,384,384,768,768,1536,768,768,768,384,384,768,384,768,768,1536,768,768,1536,1536,768,768,768,384,384,384,1536,768,768,1536,768,768,384,384,768,768,768,1536]","[192,0,128,192,192,256,128,64,64,64,256,64,0,192,64,128,-64,0,128,128,192,128,192,-64,0,64,192,64,192,64,320,-64,192,192,192,256,128,192,0,192,0,0,192,192,-64,128,320,192,320,192,64,128,192,192,128,128,256,128,64,128,192,192,0,256]","[192,0,128,192,192,256,128,64,64,64,256,64,0,192,64,128,-64,0,128,128,192,128,192,-64,0,64,192,64,192,64,320,-64,192,192,192,256,128,192,0,192,0,0,192,192,-64,128,320,192,320,192,64,128,192,192,128,128,256,128,64,128,192,192,0,256]","[1728,1882,1664,960,1562,1792,1664,1600,1330,832,1024,1600,2127,1728,832,848,2070,720,1664,2679,1728,896,1728,1472,1536,1134,960,840,1549,832,1088,1472,960,960,960,1816,1247,2780,1007,960,1980,1536,2976,960,1472,1664,1088,960,1088,1752,1190,1240,1728,960,896,1664,1697,896,1127,1289,2878,960,2644,1792]","[1728,1882,1664,960,1562,1792,1664,1600,1330,832,1024,1600,2127,1728,832,848,2070,720,1664,2679,1728,896,1728,1472,1536,1134,960,840,1549,832,1088,1472,960,960,960,1816,1247,2780,1007,960,1980,1536,2976,960,1472,1664,1088,960,1088,1752,1190,1240,1728,960,896,1664,1697,896,1127,1289,2878,960,2644,1792]","[""0"",""0"",""0"",""0"",""0"",""0"",""0"",""0"",""0"",""0"",""0"",""0"",""0"",""0"",""0"",""0"",""0"",""0"",""0"",""1"",""0"",""0"",""0"",""0"",""0"",""0"",""0"",""0"",""0"",""0"",""0"",""0"",""0"",""0"",""0"",""0"",""0"",""1"",""0"",""0"",""0"",""0"",""1"",""0"",""0"",""0"",""0"",""0"",""0"",""0"",""0"",""0"",""0"",""0"",""0"",""0"",""0"",""0"",""0"",""0"",""1"",""0"",""1"",""0""]","[1728,1882,1664,960,1562,1792,1664,1600,1330,832,1024,1600,2127,1728,832,848,2070,720,1664,0,1728,896,1728,1472,1536,1134,960,840,1549,832,1088,1472,960,960,960,1816,1247,0,1007,960,1980,1536,0,960,1472,1664,1088,960,1088,1752,1190,1240,1728,960,896,1664,1697,896,1127,1289,0,960,0,1792]","[6,2,6,3,1,6,6,6,1,3,3,6,2,6,3,1,2,1,6,3,6,3,6,6,6,1,3,1,1,3,3,6,3,3,3,1,1,3,1,3,2,6,3,3,6,6,3,3,3,1,1,1,6,3,3,6,3,3,1,1,3,3,3,6]"
0,train_0000,train,13,513,"[1728,1882,1664,960,1562,1792,1664,1600,1330,832,1024,1600,2127,1728,832,848,2070,720,1664,0,1728,896,1728,1472,1536,1134,960,840,1549,832,1088,1472,960,960,960,1816,1247,0,1007,960,1980,1536,0,960,1472,1664,1088,960,1088,1752,1190,1240,1728,960,896,1664,1697,896,1127,1289,0,960,0,1792]","[1539,769,1539,769,384,1539,1539,1539,384,769,769,1539,769,1539,769,384,769,384,1539,769,1539,769,1539,1539,1539,384,769,384,384,769,769,1539,769,769,769,384,384,769,384,769,769,1539,769,769,1539,1539,769,769,769,384,384,384,1539,769,769,1539,769,769,384,384,769,769,769,1539]","[-64,0,0,64,0,64,64,64,0,64,0,64,0,0,64,0,0,0,64,-128,0,64,64,0,-64,64,-64,0,128,128,0,0,-64,0,0,128,64,64,192,0,0,-64,64,0,0,128,64,-64,64,128,128,0,-128,0,0,64,128,0,64,64,0,0,64,0]","[-64,0,0,64,0,64,64,64,0,64,0,64,0,0,64,0,0,0,64,-128,0,64,64,0,-64,64,-64,0,128,128,0,0,-64,0,0,128,64,64,192,0,0,-64,64,0,0,128,64,-64,64,128,128,0,-128,0,0,64,128,0,64,64,0,0,64,0]","[2987,2416,2995,1673,1751,3171,3059,3003,1548,1561,1665,3003,2631,3051,1561,1126,2581,1014,3059,641,3051,1617,3115,2827,2819,1441,1545,1119,1868,1625,1721,2827,1545,1609,1609,2101,1540,833,1458,1609,2502,2819,833,1609,2827,3123,1785,1545,1785,2045,1554,1469,2923,1609,1553,3059,2382,1553,1435,1576,769,1609,833,3107]","[2987,2416,2995,1673,1751,3171,3059,3003,1548,1561,1665,3003,2631,3051,1561,1126,2581,1014,3059,641,3051,1617,3115,2827,2819,1441,1545,1119,1868,1625,1721,2827,1545,1609,1609,2101,1540,833,1458,1609,2502,2819,833,1609,2827,3123,1785,1545,1785,2045,1554,1469,2923,1609,1553,3059,2382,1553,1435,1576,769,1609,833,3107]","[""1"",""0"",""1"",""0"",""0"",""1"",""1"",""1"",""0"",""0"",""0"",""1"",""1"",""1"",""0"",""0"",""1"",""0"",""1"",""0"",""1"",""0"",""1"",""1"",""1"",""0"",""0"",""0"",""0"",""0"",""0"",""1"",""0"",""0"",""0"",""0"",""0"",""0"",""0"",""0"",""0"",""1"",""0"",""0"",""1"",""1"",""0"",""0"",""0"",""0"",""0"",""0"",""1"",""0"",""0"",""1"",""0"",""0"",""0"",""0"",""0"",""0"",""0"",""1""]","[0,2416,0,1673,1751,0,0,0,1548,1561,1665,0,0,0,1561,1126,0,1014,0,641,0,1617,0,0,0,1441,1545,1119,1868,1625,1721,0,1545,1609,1609,2101,1540,833,1458,1609,2502,0,833,1609,0,0,1785,1545,1785,2045,1554,1469,0,1609,1553,0,2382,1553,1435,1576,769,1609,833,0]","[7,2,7,3,1,7,7,7,1,3,3,7,3,7,3,1,3,1,7,3,7,3,7,7,7,1,3,1,1,3,3,7,3,3,3,1,1,3,1,3,2,7,3,3,7,7,3,3,3,1,1,1,7,3,3,7,3,3,1,1,3,3,3,7]"
0,train_0000,train,14,513,"[0,2416,0,1673,1751,0,0,0,1548,1561,1665,0,0,0,1561,1126,0,1014,0,641,0,1617,0,0,0,1441,1545,1119,1868,1625,1721,0,1545,1609,1609,2101,1540,833,1458,1609,2502,0,833,1609,0,0,1785,1545,1785,2045,1554,1469,0,1609,1553,0,2382,1553,1435,1576,769,1609,833,0]","[1539,769,1539,769,384,1539,1539,1539,384,769,769,1539,769,1539,769,384,769,384,1539,769,1539,769,1539,1539,1539,384,769,384,384,769,769,1539,769,769,769,384,384,769,384,769,769,1539,769,769,1539,1539,769,769,769,384,384,384,1539,769,769,1539,769,769,384,384,769,769,769,1539]","[128,-128,64,0,128,64,128,0,128,64,192,128,0,192,64,64,0,64,0,64,64,128,128,-128,64,0,64,64,64,64,64,-64,128,128,256,192,128,0,64,128,-64,-64,64,128,0,128,128,128,64,128,-64,128,0,128,64,0,256,64,128,64,0,128,0,0]","[128,-128,64,0,128,64,128,0,128,64,192,128,0,192,64,64,0,64,0,64,64,128,128,-128,64,0,64,64,64,64,64,-64,128,128,256,192,128,0,64,128,-64,-64,64,128,0,128,128,128,64,128,-64,128,0,128,64,0,256,64,128,64,0,128,0,0]","[1667,2755,1603,2233,2045,1603,1667,1539,1867,2199,2418,1667,769,1731,2199,1434,769,1336,1539,1394,1603,2312,1667,1411,1603,1645,2185,1428,2083,2255,2339,1475,2249,2305,2433,2415,1860,1498,1724,2305,2895,1475,1562,2305,1539,1667,2459,2249,2395,2302,1680,1798,1539,2305,2192,1539,3110,2192,1768,1827,1442,2305,1498,1539]","[1667,2755,1603,2233,2045,1603,1667,1539,1867,2199,2418,1667,769,1731,2199,1434,769,1336,1539,1394,1603,2312,1667,1411,1603,1645,2185,1428,2083,2255,2339,1475,2249,2305,2433,2415,1860,1498,1724,2305,2895,1475,1562,2305,1539,1667,2459,2249,2395,2302,1680,1798,1539,2305,2192,1539,3110,2192,1768,1827,1442,2305,1498,1539]","[""0"",""1"",""0"",""0"",""0"",""0"",""0"",""0"",""0"",""0"",""0"",""0"",""0"",""0"",""0"",""0"",""0"",""0"",""0"",""0"",""0"",""0"",""0"",""0"",""0"",""0"",""0"",""0"",""0"",""0"",""0"",""0"",""0"",""0"",""0"",""0"",""0"",""0"",""0"",""0"",""1"",""0"",""0"",""0"",""0"",""0"",""0"",""0"",""0"",""0"",""0"",""0"",""0"",""0"",""0"",""0"",""1"",""0"",""0"",""0"",""0"",""0"",""0"",""0""]","[1667,0,1603,2233,2045,1603,1667,1539,1867,2199,2418,1667,769,1731,2199,1434,769,1336,1539,1394,1603,2312,1667,1411,1603,1645,2185,1428,2083,2255,2339,1475,2249,2305,2433,2415,1860,1498,1724,2305,0,1475,1562,2305,1539,1667,2459,2249,2395,2302,1680,1798,1539,2305,2192,1539,0,2192,1768,1827,1442,2305,1498,1539]","[7,3,7,3,1,7,7,7,1,3,3,7,3,7,3,1,3,1,7,3,7,3,7,7,7,1,3,1,1,3,3,7,3,3,3,1,1,3,1,3,3,7,3,3,7,7,3,3,3,1,1,1,7,3,3,7,4,3,1,1,3,3,3,7]"
0,train_0000,train,15,513,"[1667,0,1603,2233,2045,1603,1667,1539,1867,2199,2418,1667,769,1731,2199,1434,769,1336,1539,1394,1603,2312,1667,1411,1603,1645,2185,1428,2083,2255,2339,1475,2249,2305,2433,2415,1860,1498,1724,2305,0,1475,1562,2305,1539,1667,2459,2249,2395,2302,1680,1798,1539,2305,2192,1539,0,2192,1768,1827,1442,2305,1498,1539]","[1539,769,1539,769,384,1539,1539,1539,384,769,769,1539,769,1539,769,384,769,384,1539,769,1539,769,1539,1539,1539,384,769,384,384,769,769,1539,769,769,769,384,384,769,384,769,769,1539,769,769,1539,1539,769,769,769,384,384,384,1539,769,769,1539,769,769,384,384,769,769,769,1539]","[0,0,0,0,0,0,0,0,64,64,0,0,0,0,64,0,0,0,0,0,0,0,0,0,0,64,0,0,0,0,0,0,0,64,64,0,0,0,0,0,0,0,64,64,-64,64,0,0,64,0,64,0,-64,0,0,0,0,0,-64,0,0,0,64,0]","[0,0,0,0,0,0,0,0,64,64,0,0,0,0,64,0,0,0,0,0,0,0,0,0,0,64,0,0,0,0,0,0,0,64,64,0,0,0,0,0,0,0,64,64,-64,64,0,0,64,0,64,0,-64,0,0,0,0,0,-64,0,0,0,64,0]","[2998,769,2942,2723,2174,2942,2998,2886,2082,2758,2885,2998,1442,3054,2758,1639,1442,1553,2886,1989,2942,2792,2998,2774,2942,1888,2681,1634,2207,2743,2816,2830,2737,2850,2962,2498,2012,2080,1893,2786,769,2830,2200,2850,2822,3062,2921,2737,2929,2399,1918,1958,2822,2786,2687,2886,769,2687,1867,1983,2031,2786,2144,2886]","[2998,769,2942,2723,2174,2942,2998,2886,2082,2758,2885,2998,1442,3054,2758,1639,1442,1553,2886,1989,2942,2792,2998,2774,2942,1888,2681,1634,2207,2743,2816,2830,2737,2850,2962,2498,2012,2080,1893,2786,769,2830,2200,2850,2822,3062,2921,2737,2929,2399,1918,1958,2822,2786,2687,2886,769,2687,1867,1983,2031,2786,2144,2886]","[""1"",""0"",""1"",""1"",""0"",""1"",""1"",""1"",""0"",""1"",""1"",""1"",""0"",""1"",""1"",""0"",""0"",""0"",""1"",""0"",""1"",""1"",""1"",""1"",""1"",""0"",""1"",""0"",""0"",""1"",""1"",""1"",""1"",""1"",""1"",""0"",""0"",""0"",""0"",""1"",""0"",""1"",""0"",""1"",""1"",""1"",""1"",""1"",""1"",""0"",""0"",""0"",""1"",""1"",""1"",""1"",""0"",""1"",""0"",""0"",""0"",""1"",""0"",""1""]","[0,769,0,0,2174,0,0,0,2082,0,0,0,1442,0,0,1639,1442,1553,0,1989,0,0,0,0,0,1888,0,1634,2207,0,0,0,0,0,0,2498,2012,2080,1893,0,769,0,2200,0,0,0,0,0,0,2399,1918,1958,0,0,0,0,769,0,1867,1983,2031,0,2144,0]","[8,3,8,4,1,8,8,8,1,4,4,8,3,8,4,1,3,1,8,3,8,4,8,8,8,1,4,1,1,4,4,8,4,4,4,1,1,3,1,4,3,8,3,4,8,8,4,4,4,1,1,1,8,4,4,8,4,4,1,1,3,4,3,8]"
0,train_0000,train,16,513,"[0,769,0,0,2174,0,0,0,2082,0,0,0,1442,0,0,1639,1442,1553,0,1989,0,0,0,0,0,1888,0,1634,2207,0,0,0,0,0,0,2498,2012,2080,1893,0,769,0,2200,0,0,0,0,0,0,2399,1918,1958,0,0,0,0,769,0,1867,1983,2031,0,2144,0]","[1539,769,1539,769,384,1539,1539,1539,384,769,769,1539,769,1539,769,384,769,384,1539,769,1539,769,1539,1539,1539,384,769,384,384,769,769,1539,769,769,769,384,384,769,384,769,769,1539,769,769,1539,1539,769,769,769,384,384,384,1539,769,769,1539,769,769,384,384,769,769,769,1539]","[192,0,128,192,192,256,128,64,64,64,256,64,0,192,64,128,-64,0,128,128,192,128,192,-64,0,64,192,64,192,64,320,-64,192,192,192,256,128,192,0,192,0,0,192,192,-64,128,320,192,320,192,64,128,192,192,128,128,256,128,64,128,192,192,0,256]","[192,0,128,192,192,256,128,64,64,64,256,64,0,192,64,128,-64,0,128,128,192,128,192,-64,0,64,192,64,192,64,320,-64,192,192,192,256,128,192,0,192,0,0,192,192,-64,128,320,192,320,192,64,128,192,192,128,128,256,128,64,128,192,192,0,256]","[1731,1442,1667,961,2479,1795,1667,1603,2270,833,1025,1603,2031,1731,833,1947,1967,1743,1667,2638,1731,897,1731,1475,1539,2100,961,1878,2508,833,1089,1475,961,961,961,2826,2273,2781,2041,961,1442,1539,2886,961,1475,1667,1089,961,1089,2676,2127,2226,1731,961,897,1667,1698,897,2082,2248,2739,961,2645,1795]","[1731,1442,1667,961,2479,1795,1667,1603,2270,833,1025,1603,2031,1731,833,1947,1967,1743,1667,2638,1731,897,1731,1475,1539,2100,961,1878,2508,833,1089,1475,961,961,961,2826,2273,2781,2041,961,1442,1539,2886,961,1475,1667,1089,961,1089,2676,2127,2226,1731,961,897,1667,1698,897,2082,2248,2739,961,2645,1795]","[""0"",""0"",""0"",""0"",""0"",""0"",""0"",""0"",""0"",""0"",""0"",""0"",""0"",""0"",""0"",""0"",""0"",""0"",""0"",""1"",""0"",""0"",""0"",""0"",""0"",""0"",""0"",""0"",""0"",""0"",""0"",""0"",""0"",""0"",""0"",""1"",""0"",""1"",""0"",""0"",""0"",""0"",""1"",""0"",""0"",""0"",""0"",""0"",""0"",""1"",""0"",""0"",""0"",""0"",""0"",""0"",""0"",""0"",""0"",""0"",""1"",""0"",""1"",""0""]","[1731,1442,1667,961,2479,1795,1667,1603,2270,833,1025,1603,2031,1731,833,1947,1967,1743,1667,0,1731,897,1731,1475,1539,2100,961,1878,2508,833,1089,1475,961,961,961,0,2273,0,2041,961,1442,1539,0,961,1475,1667,1089,961,1089,0,2127,2226,1731,961,897,1667,1698,897,2082,2248,0,961,0,1795]","[8,3,8,4,1,8,8,8,1,4,4,8,3,8,4,1,3,1,8,4,8,4,8,8,8,1,4,1,1,4,4,8,4,4,4,2,1,4,1,4,3,8,4,4,8,8,4,4,4,2,1,1,8,4,4,8,4,4,1,1,4,4,4,8]"
0,train_0000,train,17,513,"[1731,1442,1667,961,2479,1795,1667,1603,2270,833,1025,1603,2031,1731,833,1947,1967,1743,1667,0,1731,897,1731,1475,1539,2100,961,1878,2508,833,1089,1475,961,961,961,0,2273,0,2041,961,1442,1539,0,961,1475,1667,1089,961,1089,0,2127,2226,1731,961,897,1667,1698,897,2082,2248,0,961,0,1795]","[1539,769,1539,769,384,1539,1539,1539,384,769,769,1539,769,1539,769,384,769,384,1539,769,1539,769,1539,1539,1539,384,769,384,384,769,769,1539,769,769,769,384,384,769,384,769,769,1539,769,769,1539,1539,769,769,769,384,384,384,1539,769,769,1539,769,769,384,384,769,769,769,1539]","[-64,64,0,0,0,64,64,0,0,64,0,64,0,0,64,0,0,0,64,-128,64,0,64,0,-64,64,0,0,128,128,0,0,-64,0,-64,128,64,64,192,0,0,-64,64,0,0,128,64,-64,0,128,192,0,-128,64,0,64,192,0,64,64,64,0,64,0]","[-64,64,0,0,0,64,64,0,0,64,0,64,0,0,64,0,0,0,64,-128,64,0,64,0,-64,64,0,0,128,128,0,0,-64,0,-64,128,64,64,192,0,0,-64,64,0,0,128,64,-64,0,128,192,0,-128,64,0,64,192,0,64,64,64,0,64,0]","[2990,2095,2998,1610,2554,3174,3062,2942,2371,1562,1666,3006,2547,3054,1562,2088,2491,1910,3062,641,3118,1554,3118,2830,2822,2286,1610,2028,2707,1626,1722,2830,1546,1610,1546,512,2437,833,2362,1610,2031,2822,833,1610,2830,3126,1786,1546,1722,512,2438,2332,2926,1674,1554,3062,2447,1554,2270,2415,833,1610,833,3110]","[2990,2095,2998,1610,2554,3174,3062,2942,2371,1562,1666,3006,2547,3054,1562,2088,2491,1910,3062,641,3118,1554,3118,2830,2822,2286,1610,2028,2707,1626,1722,2830,1546,1610,1546,512,2437,833,2362,1610,2031,2822,833,1610,2830,3126,1786,1546,1722,512,2438,2332,2926,1674,1554,3062,2447,1554,2270,2415,833,1610,833,3110]","[""1"",""0"",""1"",""0"",""0"",""1"",""1"",""1"",""0"",""0"",""0"",""1"",""0"",""1"",""0"",""0"",""0"",""0"",""1"",""0"",""1"",""0"",""1"",""1"",""1"",""0"",""0"",""0"",""1"",""0"",""0"",""1"",""0"",""0"",""0"",""0"",""0"",""0"",""0"",""0"",""0"",""1"",""0"",""0"",""1"",""1"",""0"",""0"",""0"",""0"",""0"",""0"",""1"",""0"",""0"",""1"",""0"",""0"",""0"",""0"",""0"",""0"",""0"",""1""]","[0,2095,0,1610,2554,0,0,0,2371,1562,1666,0,2547,0,1562,2088,2491,1910,0,641,0,1554,0,0,0,2286,1610,2028,0,1626,1722,0,1546,1610,1546,512,2437,833,2362,1610,2031,0,833,1610,0,0,1786,1546,1722,512,2438,2332,0,1674,1554,0,2447,1554,2270,2415,833,1610,833,0]","[9,3,9,4,1,9,9,9,1,4,4,9,3,9,4,1,3,1,9,4,9,4,9,9,9,1,4,1,2,4,4,9,4,4,4,2,1,4,1,4,3,9,4,4,9,9,4,4,4,2,1,1,9,4,4,9,4,4,1,1,4,4,4,9]"
0,train_0000,train,18,513,"[0,2095,0,1610,2554,0,0,0,2371,1562,1666,0,2547,0,1562,2088,2491,1910,0,641,0,1554,0,0,0,2286,1610,2028,0,1626,1722,0,1546,1610,1546,512,2437,833,2362,1610,2031,0,833,1610,0,0,1786,1546,1722,512,2438,2332,0,1674,1554,0,2447,1554,2270,2415,833,1610,833,0]","[1539,769,1539,769,384,1539,1539,1539,384,769,769,1539,769,1539,769,384,769,384,1539,769,1539,769,1539,1539,1539,384,769,384,384,769,769,1539,769,769,769,384,384,769,384,769,769,1539,769,769,1539,1539,769,769,769,384,384,384,1539,769,769,1539,769,769,384,384,769,769,769,1539]","[128,-128,0,64,64,128,128,0,128,64,192,192,0,192,64,128,-64,64,0,64,64,128,128,-128,0,0,64,64,64,128,64,-64,64,128,256,128,64,0,64,128,-64,-64,0,128,0,128,128,128,64,128,-64,128,0,128,64,0,256,64,128,64,0,256,0,0]","[128,-128,0,64,64,128,128,0,128,64,192,192,0,192,64,128,-64,64,0,64,64,128,128,-128,0,0,64,64,64,128,64,-64,64,128,256,128,64,0,64,128,-64,-64,0,128,0,128,128,128,64,128,-64,128,0,128,64,0,256,64,128,64,0,256,0,0]","[1667,2475,1539,2242,2683,1667,1667,1539,2587,2200,2419,1731,2998,1731,2200,2339,2885,2120,1539,1394,1603,2257,1667,1411,1539,2385,2242,2223,448,2320,2340,1475,2186,2306,2378,960,2581,1498,2515,2306,2483,1475,1498,2306,1539,1667,2460,2250,2340,960,2454,2553,1539,2362,2193,1539,3167,2193,2499,2562,1498,2434,1498,1539]","[1667,2475,1539,2242,2683,1667,1667,1539,2587,2200,2419,1731,2998,1731,2200,2339,2885,2120,1539,1394,1603,2257,1667,1411,1539,2385,2242,2223,448,2320,2340,1475,2186,2306,2378,960,2581,1498,2515,2306,2483,1475,1498,2306,1539,1667,2460,2250,2340,960,2454,2553,1539,2362,2193,1539,3167,2193,2499,2562,1498,2434,1498,1539]","[""0"",""0"",""0"",""0"",""1"",""0"",""0"",""0"",""1"",""0"",""0"",""0"",""1"",""0"",""0"",""0"",""1"",""0"",""0"",""0"",""0"",""0"",""0"",""0"",""0"",""0"",""0"",""0"",""0"",""0"",""0"",""0"",""0"",""0"",""0"",""0"",""1"",""0"",""0"",""0"",""0"",""0"",""0"",""0"",""0"",""0"",""0"",""0"",""0"",""0"",""0"",""0"",""0"",""0"",""0"",""0"",""1"",""0"",""0"",""1"",""0"",""0"",""0"",""0""]","[1667,2475,1539,2242,0,1667,1667,1539,0,2200,2419,1731,0,1731,2200,2339,0,2120,1539,1394,1603,2257,1667,1411,1539,2385,2242,2223,448,2320,2340,1475,2186,2306,2378,960,0,1498,2515,2306,2483,1475,1498,2306,1539,1667,2460,2250,2340,960,2454,2553,1539,2362,2193,1539,0,2193,2499,0,1498,2434,1498,1539]","[9,3,9,4,2,9,9,9,2,4,4,9,4,9,4,1,4,1,9,4,9,4,9,9,9,1,4,1,2,4,4,9,4,4,4,2,2,4,1,4,3,9,4,4,9,9,4,4,4,2,1,1,9,4,4,9,5,4,1,2,4,4,4,9]"
0,train_0000,train,19,513,"[1667,2475,1539,2242,0,1667,1667,1539,0,2200,2419,1731,0,1731,2200,2339,0,2120,1539,1394,1603,2257,1667,1411,1539,2385,2242,2223,448,2320,2340,1475,2186,2306,2378,960,0,1498,2515,2306,2483,1475,1498,2306,1539,1667,2460,2250,2340,960,2454,2553,1539,2362,2193,1539,0,2193,2499,0,1498,2434,1498,1539]","[1539,769,1539,769,384,1539,1539,1539,384,769,769,1539,769,1539,769,384,769,384,1539,769,1539,769,1539,1539,1539,384,769,384,384,769,769,1539,769,769,769,384,384,769,384,769,769,1539,769,769,1539,1539,769,769,769,384,384,384,1539,769,769,1539,769,769,384,384,769,769,769,1539]","[64,-64,64,-64,64,0,64,0,64,0,-64,0,128,0,0,-64,64,128,-64,64,0,0,0,0,128,128,0,0,0,64,0,0,64,64,0,64,64,0,64,64,0,0,64,64,64,0,0,0,0,64,64,64,128,0,64,0,0,0,128,64,64,0,64,-64]","[64,-64,64,-64,64,0,64,0,64,0,-64,0,128,0,0,-64,64,128,-64,64,0,0,0,0,128,128,0,0,0,64,0,0,64,64,0,64,64,0,64,64,0,0,64,64,64,0,0,0,0,64,64,64,128,0,64,0,0,0,128,64,64,0,64,-64]","[3062,2871,2950,2667,448,2998,3062,2886,448,2694,2822,3054,897,3054,2694,2367,833,2367,2822,2053,2942,2744,2998,2774,3014,2599,2731,2330,776,2863,2817,2830,2746,2851,2850,1288,448,2080,2649,2851,2942,2830,2144,2851,2950,2998,2922,2738,2817,1288,2596,2682,3014,2836,2752,2886,769,2688,2699,448,2144,2899,2144,2822]","[3062,2871,2950,2667,448,2998,3062,2886,448,2694,2822,3054,897,3054,2694,2367,833,2367,2822,2053,2942,2744,2998,2774,3014,2599,2731,2330,776,2863,2817,2830,2746,2851,2850,1288,448,2080,2649,2851,2942,2830,2144,2851,2950,2998,2922,2738,2817,1288,2596,2682,3014,2836,2752,2886,769,2688,2699,448,2144,2899,2144,2822]","[""1"",""1"",""1"",""1"",""0"",""1"",""1"",""1"",""0"",""1"",""1"",""1"",""0"",""1"",""1"",""0"",""0"",""0"",""1"",""0"",""1"",""1"",""1"",""1"",""1"",""1"",""1"",""0"",""0"",""1"",""1"",""1"",""1"",""1"",""1"",""0"",""0"",""0"",""1"",""1"",""1"",""1"",""0"",""1"",""1"",""1"",""1"",""1"",""1"",""0"",""1"",""1"",""1"",""1"",""1"",""1"",""0"",""1"",""1"",""0"",""0"",""1"",""0"",""1""]","[0,0,0,0,448,0,0,0,448,0,0,0,897,0,0,2367,833,2367,0,2053,0,0,0,0,0,0,0,2330,776,0,0,0,0,0,0,1288,448,2080,0,0,0,0,2144,0,0,0,0,0,0,1288,0,0,0,0,0,0,769,0,0,448,2144,0,2144,0]","[10,4,10,5,2,10,10,10,2,5,5,10,4,10,5,1,4,1,10,4,10,5,10,10,10,2,5,1,2,5,5,10,5,5,5,2,2,4,2,5,4,10,4,5,10,10,5,5,5,2,2,2,10,5,5,10,5,5,2,2,4,5,4,10]"
1,train_0001,train,0,523,"[0,0,0,0,0,0,0,0,0,0,0,0,0,0,0,0,0,0,0,0,0,0,0,0,0,0,0,0,0,0,0,0,0,0,0,0,0,0,0,0,0,0,0,0,0,0,0,0,0,0,0,0,0,0,0,0,0,0,0,0,0,0,0,0]","[1569,784,1569,784,392,1569,1569,1569,392,784,784,1569,784,1569,784,392,784,392,1569,784,1569,784,1569,1569,1569,392,784,392,392,784,784,1569,784,784,784,392,392,784,392,784,784,1569,784,784,1569,1569,784,784,784,392,392,392,1569,784,784,1569,784,784,392,392,784,784,784,1569]","[0,0,0,0,0,0,0,0,0,0,0,0,0,0,0,0,0,0,0,0,0,0,0,0,0,0,0,0,0,0,0,0,0,0,0,0,0,0,0,0,0,0,0,0,0,0,0,0,0,0,0,0,0,0,0,0,0,0,0,0,0,0,0,0]","[0,0,0,0,0,0,0,0,0,0,0,0,0,0,0,0,0,0,0,0,0,0,0,0,0,0,0,0,0,0,0,0,0,0,0,0,0,0,0,0,0,0,0,0,0,0,0,0,0,0,0,0,0,0,0,0,0,0,0,0,0,0,0,0]","[1569,784,1569,784,392,1569,1569,1569,392,784,784,1569,784,1569,784,392,784,392,1569,784,1569,784,1569,1569,1569,392,784,392,392,784,784,1569,784,784,784,392,392,784,392,784,784,1569,784,784,1569,1569,784,784,784,392,392,392,1569,784,784,1569,784,784,392,392,784,784,784,1569]","[1569,784,1569,784,392,1569,1569,1569,392,784,784,1569,784,1569,784,392,784,392,1569,784,1569,784,1569,1569,1569,392,784,392,392,784,784,1569,784,784,784,392,392,784,392,784,784,1569,784,784,1569,1569,784,784,784,392,392,392,1569,784,784,1569,784,784,392,392,784,784,784,1569]","[""0"",""0"",""0"",""0"",""0"",""0"",""0"",""0"",""0"",""0"",""0"",""0"",""0"",""0"",""0"",""0"",""0"",""0"",""0"",""0"",""0"",""0"",""0"",""0"",""0"",""0"",""0"",""0"",""0"",""0"",""0"",""0"",""0"",""0"",""0"",""0"",""0"",""0"",""0"",""0"",""0"",""0"",""0"",""0"",""0"",""0"",""0"",""0"",""0"",""0"",""0"",""0"",""0"",""0"",""0"",""0"",""0"",""0"",""0"",""0"",""0"",""0"",""0"",""0""]","[1569,784,1569,784,392,1569,1569,1569,392,784,784,1569,784,1569,784,392,784,392,1569,784,1569,784,1569,1569,1569,392,784,392,392,784,784,1569,784,784,784,392,392,784,392,784,784,1569,784,784,1569,1569,784,784,784,392,392,392,1569,784,784,1569,784,784,392,392,784,784,784,1569]","[0,0,0,0,0,0,0,0,0,0,0,0,0,0,0,0,0,0,0,0,0,0,0,0,0,0,0,0,0,0,0,0,0,0,0,0,0,0,0,0,0,0,0,0,0,0,0,0,0,0,0,0,0,0,0,0,0,0,0,0,0,0,0,0]"
1,train_0001,train,1,524,"[1569,784,1569,784,392,1569,1569,1569,392,784,784,1569,784,1569,784,392,784,392,1569,784,1569,784,1569,1569,1569,392,784,392,392,784,784,1569,784,784,784,392,392,784,392,784,784,1569,784,784,1569,1569,784,784,784,392,392,392,1569,784,784,1569,784,784,392,392,784,784,784,1569]","[1572,786,1572,786,393,1572,1572,1572,393,786,786,1572,786,1572,786,393,786,393,1572,786,1572,786,1572,1572,1572,393,786,393,393,786,786,1572,786,786,786,393,393,786,393,786,786,1572,786,786,1572,1572,786,786,786,393,393,393,1572,786,786,1572,786,786,393,393,786,786,786,1572]","[0,0,0,0,0,0,0,0,0,0,0,0,0,0,0,0,0,0,0,0,0,0,0,0,0,0,0,0,0,0,0,0,0,0,0,0,0,0,0,0,0,0,0,0,0,0,0,0,0,0,0,0,0,0,0,0,0,0,0,0,0,0,0,0]","[0,0,0,0,0,0,0,0,0,0,0,0,0,0,0,0,0,0,0,0,0,0,0,0,0,0,0,0,0,0,0,0,0,0,0,0,0,0,0,0,0,0,0,0,0,0,0,0,0,0,0,0,0,0,0,0,0,0,0,0,0,0,0,0]","[2945,1472,2945,1472,736,2945,2945,2945,736,1472,1472,2945,1472,2945,1472,736,1472,736,2945,1472,2945,1472,2945,2945,2945,736,1472,736,736,1472,1472,2945,1472,1472,1472,736,736,1472,736,1472,1472,2945,1472,1472,2945,2945,1472,1472,1472,736,736,736,2945,1472,1472,2945,1472,1472,736,736,1472,1472,1472,2945]","[2945,1472,2945,1472,736,2945,2945,2945,736,1472,1472,2945,1472,2945,1472,736,1472,736,2945,1472,2945,1472,2945,2945,2945,736,1472,736,736,1472,1472,2945,1472,1472,1472,736,736,1472,736,1472,1472,2945,1472,1472,2945,2945,1472,1472,1472,736,736,736,2945,1472,1472,2945,1472,1472,736,736,1472,1472,1472,2945]","[""1"",""0"",""1"",""0"",""0"",""1"",""1"",""1"",""0"",""0"",""0"",""1"",""0"",""1"",""0"",""0"",""0"",""0"",""1"",""0"",""1"",""0"",""1"",""1"",""1"",""0"",""0"",""0"",""0"",""0"",""0"",""1"",""0"",""0"",""0"",""0"",""0"",""0"",""0"",""0"",""0"",""1"",""0"",""0"",""1"",""1"",""0"",""0"",""0"",""0"",""0"",""0"",""1"",""0"",""0"",""1"",""0"",""0"",""0"",""0"",""0"",""0"",""0"",""1""]","[0,1472,0,1472,736,0,0,0,736,1472,1472,0,1472,0,1472,736,1472,736,0,1472,0,1472,0,0,0,736,1472,736,736,1472,1472,0,1472,1472,1472,736,736,1472,736,1472,1472,0,1472,1472,0,0,1472,1472,1472,736,736,736,0,1472,1472,0,1472,1472,736,736,1472,1472,1472,0]","[1,0,1,0,0,1,1,1,0,0,0,1,0,1,0,0,0,0,1,0,1,0,1,1,1,0,0,0,0,0,0,1,0,0,0,0,0,0,0,0,0,1,0,0,1,1,0,0,0,0,0,0,1,0,0,1,0,0,0,0,0,0,0,1]"
1,train_0001,train,2,531,"[0,1472,0,1472,736,0,0,0,736,1472,1472,0,1472,0,1472,736,1472,736,0,1472,0,1472,0,0,0,736,1472,736,736,1472,1472,0,1472,1472,1472,736,736,1472,736,1472,1472,0,1472,1472,0,0,1472,1472,1472,736,736,736,0,1472,1472,0,1472,1472,736,736,1472,1472,1472,0]","[1593,796,1593,796,398,1593,1593,1593,398,796,796,1593,796,1593,796,398,796,398,1593,796,1593,796,1593,1593,1593,398,796,398,398,796,796,1593,796,796,796,398,398,796,398,796,796,1593,796,796,1593,1593,796,796,796,398,398,398,1593,796,796,1593,796,796,398,398,796,796,796,1593]","[128,-128,0,64,64,64,128,0,128,64,192,128,0,192,64,128,-64,64,0,0,64,128,128,-128,0,0,64,64,64,64,64,-64,64,128,256,128,64,0,64,128,-64,-64,0,128,0,128,128,128,64,128,-64,128,0,128,64,0,256,64,64,64,0,192,0,0]","[128,-128,0,64,64,64,128,0,128,64,192,128,0,192,64,128,-64,64,0,0,64,128,128,-128,0,0,64,64,64,64,64,-64,64,128,256,128,64,0,64,128,-64,-64,0,128,0,128,128,128,64,128,-64,128,0,128,64,0,256,64,64,64,0,192,0,0]","[1721,1956,1593,2148,1106,1657,1721,1593,1170,2148,2276,1721,2084,1785,2148,1170,2020,1106,1593,2084,1657,2212,1721,1465,1593,1042,2148,1106,1106,2148,2148,1529,2148,2212,2340,1170,1106,2084,1106,2212,2020,1529,2084,2212,1593,1721,2212,2212,2148,1170,978,1170,1593,2212,2148,1593,2340,2148,1106,1106,2084,2276,2084,1593]","[1721,1956,1593,2148,1106,1657,1721,1593,1170,2148,2276,1721,2084,1785,2148,1170,2020,1106,1593,2084,1657,2212,1721,1465,1593,1042,2148,1106,1106,2148,2148,1529,2148,2212,2340,1170,1106,2084,1106,2212,2020,1529,2084,2212,1593,1721,2212,2212,2148,1170,978,1170,1593,2212,2148,1593,2340,2148,1106,1106,2084,2276,2084,1593]","[""0"",""0"",""0"",""0"",""0"",""0"",""0"",""0"",""0"",""0"",""0"",""0"",""0"",""0"",""0"",""0"",""0"",""0"",""0"",""0"",""0"",""0"",""0"",""0"",""0"",""0"",""0"",""0"",""0"",""0"",""0"",""0"",""0"",""0"",""0"",""0"",""0"",""0"",""0"",""0"",""0"",""0"",""0"",""0"",""0"",""0"",""0"",""0"",""0"",""0"",""0"",""0"",""0"",""0"",""0"",""0"",""0"",""0"",""0"",""0"",""0"",""0"",""0"",""0""]","[1721,1956,1593,2148,1106,1657,1721,1593,1170,2148,2276,1721,2084,1785,2148,1170,2020,1106,1593,2084,1657,2212,1721,1465,1593,1042,2148,1106,1106,2148,2148,1529,2148,2212,2340,1170,1106,2084,1106,2212,2020,1529,2084,2212,1593,1721,2212,2212,2148,1170,978,1170,1593,2212,2148,1593,2340,2148,1106,1106,2084,2276,2084,1593]","[1,0,1,0,0,1,1,1,0,0,0,1,0,1,0,0,0,0,1,0,1,0,1,1,1,0,0,0,0,0,0,1,0,0,0,0,0,0,0,0,0,1,0,0,1,1,0,0,0,0,0,0,1,0,0,1,0,0,0,0,0,0,0,1]"
1,train_0001,train,3,553,"[1721,1956,1593,2148,1106,1657,1721,1593,1170,2148,2276,1721,2084,1785,2148,1170,2020,1106,1593,2084,1657,2212,1721,1465,1593,1042,2148,1106,1106,2148,2148,1529,2148,2212,2340,1170,1106,2084,1106,2212,2020,1529,2084,2212,1593,1721,2212,2212,2148,1170,978,1170,1593,2212,2148,1593,2340,2148,1106,1106,2084,2276,2084,1593]","[1659,829,1659,829,414,1659,1659,1659,414,829,829,1659,829,1659,829,414,829,414,1659,829,1659,829,1659,1659,1659,414,829,414,414,829,829,1659,829,829,829,414,414,829,414,829,829,1659,829,829,1659,1659,829,829,829,414,414,414,1659,829,829,1659,829,829,414,414,829,829,829,1659]","[0,0,0,0,0,0,0,0,0,0,0,0,0,0,0,0,0,0,0,0,0,0,0,0,0,0,0,0,0,0,0,0,0,0,0,0,0,0,0,0,0,0,0,0,0,0,0,0,0,0,0,0,0,0,0,0,0,0,0,0,0,0,0,0]","[0,0,0,0,0,0,0,0,0,0,0,0,0,0,0,0,0,0,0,0,0,0,0,0,0,0,0,0,0,0,0,0,0,0,0,0,0,0,0,0,0,0,0,0,0,0,0,0,0,0,0,0,0,0,0,0,0,0,0,0,0,0,0,0]","[3165,2541,3053,2709,1382,3109,3165,3053,1438,2709,2821,3165,2653,3221,2709,1438,2597,1382,3053,2653,3109,2765,3165,2941,3053,1326,2709,1382,1382,2709,2709,2997,2709,2765,2877,1438,1382,2653,1382,2765,2597,2997,2653,2765,3053,3165,2765,2765,2709,1438,1270,1438,3053,2765,2709,3053,2877,2709,1382,1382,2653,2821,2653,3053]","[3165,2541,3053,2709,1382,3109,3165,3053,1438,2709,2821,3165,2653,3221,2709,1438,2597,1382,3053,2653,3109,2765,3165,2941,3053,1326,2709,1382,1382,2709,2709,2997,2709,2765,2877,1438,1382,2653,1382,2765,2597,2997,2653,2765,3053,3165,2765,2765,2709,1438,1270,1438,3053,2765,2709,3053,2877,2709,1382,1382,2653,2821,2653,3053]","[""1"",""0"",""1"",""1"",""0"",""1"",""1"",""1"",""0"",""1"",""1"",""1"",""1"",""1"",""1"",""0"",""1"",""0"",""1"",""1"",""1"",""1"",""1"",""1"",""1"",""0"",""1"",""0"",""0"",""1"",""1"",""1"",""1"",""1"",""1"",""0"",""0"",""1"",""0"",""1"",""1"",""1"",""1"",""1"",""1"",""1"",""1"",""1"",""1"",""0"",""0"",""0"",""1"",""1"",""1"",""1"",""1"",""1"",""0"",""0"",""1"",""1"",""1"",""1""]","[0,2541,0,0,1382,0,0,0,1438,0,0,0,0,0,0,1438,0,1382,0,0,0,0,0,0,0,1326,0,1382,1382,0,0,0,0,0,0,1438,1382,0,1382,0,0,0,0,0,0,0,0,0,0,1438,1270,1438,0,0,0,0,0,0,1382,1382,0,0,0,0]","[2,0,2,1,0,2,2,2,0,1,1,2,1,2,1,0,1,0,2,1,2,1,2,2,2,0,1,0,0,1,1,2,1,1,1,0,0,1,0,1,1,2,1,1,2,2,1,1,1,0,0,0,2,1,1,2,1,1,0,0,1,1,1,2]"
1,train_0001,train,4,583,"[0,2541,0,0,1382,0,0,0,1438,0,0,0,0,0,0,1438,0,1382,0,0,0,0,0,0,0,1326,0,1382,1382,0,0,0,0,0,0,1438,1382,0,1382,0,0,0,0,0,0,0,0,0,0,1438,1270,1438,0,0,0,0,0,0,1382,1382,0,0,0,0]","[1749,874,1749,874,437,1749,1749,1749,437,874,874,1749,874,1749,874,437,874,437,1749,874,1749,874,1749,1749,1749,437,874,437,437,874,874,1749,874,874,874,437,437,874,437,874,874,1749,874,874,1749,1749,874,874,874,437,437,437,1749,874,874,1749,874,874,437,437,874,874,874,1749]","[128,0,192,192,256,320,192,128,128,192,256,128,0,192,192,64,0,0,192,64,192,192,256,-64,0,192,128,64,320,192,320,-64,192,256,192,448,256,256,192,192,0,-64,320,256,-64,320,384,128,384,320,256,128,64,192,128,192,384,128,192,192,192,128,128,256]","[128,0,192,192,256,320,192,128,128,192,256,128,0,192,192,64,0,0,192,64,192,192,256,-64,0,192,128,64,320,192,320,-64,192,256,192,448,256,256,192,192,0,-64,320,256,-64,320,384,128,384,320,256,128,64,192,128,192,384,128,192,192,192,128,128,256]","[1877,3098,1941,1066,1903,2069,1941,1877,1824,1066,1130,1877,874,1941,1066,1760,874,1647,1941,938,1941,1066,2005,1685,1749,1790,1002,1711,1967,1066,1194,1685,1066,1130,1066,2144,1903,1130,1839,1066,874,1685,1194,1130,1685,2069,1258,1002,1258,2016,1805,1824,1813,1066,1002,1941,1258,1002,1839,1839,1066,1002,1002,2005]","[1877,3098,1941,1066,1903,2069,1941,1877,1824,1066,1130,1877,874,1941,1066,1760,874,1647,1941,938,1941,1066,2005,1685,1749,1790,1002,1711,1967,1066,1194,1685,1066,1130,1066,2144,1903,1130,1839,1066,874,1685,1194,1130,1685,2069,1258,1002,1258,2016,1805,1824,1813,1066,1002,1941,1258,1002,1839,1839,1066,1002,1002,2005]","[""0"",""1"",""0"",""0"",""0"",""0"",""0"",""0"",""0"",""0"",""0"",""0"",""0"",""0"",""0"",""0"",""0"",""0"",""0"",""0"",""0"",""0"",""0"",""0"",""0"",""0"",""0"",""0"",""0"",""0"",""0"",""0"",""0"",""0"",""0"",""0"",""0"",""0"",""0"",""0"",""0"",""0"",""0"",""0"",""0"",""0"",""0"",""0"",""0"",""0"",""0"",""0"",""0"",""0"",""0"",""0"",""0"",""0"",""0"",""0"",""0"",""0"",""0"",""0""]","[1877,0,1941,1066,1903,2069,1941,1877,1824,1066,1130,1877,874,1941,1066,1760,874,1647,1941,938,1941,1066,2005,1685,1749,1790,1002,1711,1967,1066,1194,1685,1066,1130,1066,2144,1903,1130,1839,1066,874,1685,1194,1130,1685,2069,1258,1002,1258,2016,1805,1824,1813,1066,1002,1941,1258,1002,1839,1839,1066,1002,1002,2005]","[2,1,2,1,0,2,2,2,0,1,1,2,1,2,1,0,1,0,2,1,2,1,2,2,2,0,1,0,0,1,1,2,1,1,1,0,0,1,0,1,1,2,1,1,2,2,1,1,1,0,0,0,2,1,1,2,1,1,0,0,1,1,1,2]"
1,train_0001,train,5,593,"[1877,0,1941,1066,1903,2069,1941,1877,1824,1066,1130,1877,874,1941,1066,1760,874,1647,1941,938,1941,1066,2005,1685,1749,1790,1002,1711,1967,1066,1194,1685,1066,1130,1066,2144,1903,1130,1839,1066,874,1685,1194,1130,1685,2069,1258,1002,1258,2016,1805,1824,1813,1066,1002,1941,1258,1002,1839,1839,1066,1002,1002,2005]","[1779,889,1779,889,444,1779,1779,1779,444,889,889,1779,889,1779,889,444,889,444,1779,889,1779,889,1779,1779,1779,444,889,444,444,889,889,1779,889,889,889,444,444,889,444,889,889,1779,889,889,1779,1779,889,889,889,444,444,444,1779,889,889,1779,889,889,444,444,889,889,889,1779]","[0,0,0,0,0,0,0,0,0,0,0,0,0,0,0,0,0,0,0,0,0,0,0,0,0,0,0,0,0,0,0,0,0,0,64,0,0,0,0,0,0,0,64,0,-64,0,0,0,64,0,0,0,-64,0,0,0,0,0,-64,0,0,0,0,0]","[0,0,0,0,0,0,0,0,0,0,0,0,0,0,0,0,0,0,0,0,0,0,0,0,0,0,0,0,0,0,0,0,0,0,64,0,0,0,0,0,0,0,64,0,-64,0,0,0,64,0,0,0,-64,0,0,0,0,0,-64,0,0,0,0,0]","[3422,889,3478,1822,2110,3590,3478,3422,2040,1822,1878,3422,1654,3478,1822,1984,1654,1886,3478,1710,3478,1822,3534,3254,3310,2011,1766,1942,2166,1822,1934,3254,1822,1878,1886,2320,2110,1878,2054,1822,1654,3254,1998,1878,3190,3590,1990,1766,2054,2208,2024,2040,3302,1822,1766,3478,1990,1766,1990,2054,1822,1766,1766,3534]","[3422,889,3478,1822,2110,3590,3478,3422,2040,1822,1878,3422,1654,3478,1822,1984,1654,1886,3478,1710,3478,1822,3534,3254,3310,2011,1766,1942,2166,1822,1934,3254,1822,1878,1886,2320,2110,1878,2054,1822,1654,3254,1998,1878,3190,3590,1990,1766,2054,2208,2024,2040,3302,1822,1766,3478,1990,1766,1990,2054,1822,1766,1766,3534]","[""1"",""0"",""1"",""0"",""0"",""1"",""1"",""1"",""0"",""0"",""0"",""1"",""0"",""1"",""0"",""0"",""0"",""0"",""1"",""0"",""1"",""0"",""1"",""1"",""1"",""0"",""0"",""0"",""0"",""0"",""0"",""1"",""0"",""0"",""0"",""0"",""0"",""0"",""0"",""0"",""0"",""1"",""0"",""0"",""1"",""1"",""0"",""0"",""0"",""0"",""0"",""0"",""1"",""0"",""0"",""1"",""0"",""0"",""0"",""0"",""0"",""0"",""0"",""1""]","[0,889,0,1822,2110,0,0,0,2040,1822,1878,0,1654,0,1822,1984,1654,1886,0,1710,0,1822,0,0,0,2011,1766,1942,2166,1822,1934,0,1822,1878,1886,2320,2110,1878,2054,1822,1654,0,1998,1878,0,0,1990,1766,2054,2208,2024,2040,0,1822,1766,0,1990,1766,1990,2054,1822,1766,1766,0]","[3,1,3,1,0,3,3,3,0,1,1,3,1,3,1,0,1,0,3,1,3,1,3,3,3,0,1,0,0,1,1,3,1,1,1,0,0,1,0,1,1,3,1,1,3,3,1,1,1,0,0,0,3,1,1,3,1,1,0,0,1,1,1,3]"
1,train_0001,train,6,580,"[0,889,0,1822,2110,0,0,0,2040,1822,1878,0,1654,0,1822,1984,1654,1886,0,1710,0,1822,0,0,0,2011,1766,1942,2166,1822,1934,0,1822,1878,1886,2320,2110,1878,2054,1822,1654,0,1998,1878,0,0,1990,1766,2054,2208,2024,2040,0,1822,1766,0,1990,1766,1990,2054,1822,1766,1766,0]","[1740,870,1740,870,435,1740,1740,1740,435,870,870,1740,870,1740,870,435,870,435,1740,870,1740,870,1740,1740,1740,435,870,435,435,870,870,1740,870,870,870,435,435,870,435,870,870,1740,870,870,1740,1740,870,870,870,435,435,435,1740,870,870,1740,870,870,435,435,870,870,870,1740]","[128,-128,0,64,64,64,128,0,128,64,192,128,0,192,64,128,-64,64,0,0,64,128,128,-128,0,0,64,64,64,64,64,-64,64,128,256,128,64,0,64,128,-64,-64,0,128,0,128,128,128,64,128,-64,128,0,128,64,0,256,64,64,64,0,192,0,0]","[128,-128,0,64,64,64,128,0,128,64,192,128,0,192,64,128,-64,64,0,0,64,128,128,-128,0,0,64,64,64,64,64,-64,64,128,256,128,64,0,64,128,-64,-64,0,128,0,128,128,128,64,128,-64,128,0,128,64,0,256,64,64,64,0,192,0,0]","[1868,1520,1740,2529,2346,1804,1868,1740,2348,2529,2706,1868,2318,1932,2529,2299,2254,2150,1740,2367,1804,2593,1868,1612,1740,2195,2480,2199,2395,2529,2627,1676,2529,2642,2777,2593,2346,2514,2297,2593,2254,1676,2619,2642,1740,1868,2740,2544,2732,2495,2142,2348,1740,2593,2480,1740,2868,2480,2241,2297,2465,2608,2416,1740]","[1868,1520,1740,2529,2346,1804,1868,1740,2348,2529,2706,1868,2318,1932,2529,2299,2254,2150,1740,2367,1804,2593,1868,1612,1740,2195,2480,2199,2395,2529,2627,1676,2529,2642,2777,2593,2346,2514,2297,2593,2254,1676,2619,2642,1740,1868,2740,2544,2732,2495,2142,2348,1740,2593,2480,1740,2868,2480,2241,2297,2465,2608,2416,1740]","[""0"",""0"",""0"",""0"",""0"",""0"",""0"",""0"",""0"",""0"",""1"",""0"",""0"",""0"",""0"",""0"",""0"",""0"",""0"",""0"",""0"",""1"",""0"",""0"",""0"",""0"",""0"",""0"",""0"",""0"",""1"",""0"",""0"",""1"",""1"",""1"",""0"",""0"",""0"",""1"",""0"",""0"",""1"",""1"",""0"",""0"",""1"",""0"",""1"",""0"",""0"",""0"",""0"",""1"",""0"",""0"",""1"",""0"",""0"",""0"",""0"",""1"",""0"",""0""]","[1868,1520,1740,2529,2346,1804,1868,1740,2348,2529,0,1868,2318,1932,2529,2299,2254,2150,1740,2367,1804,0,1868,1612,1740,2195,2480,2199,2395,2529,0,1676,2529,0,0,0,2346,2514,2297,0,2254,1676,0,0,1740,1868,0,2544,0,2495,2142,2348,1740,0,2480,1740,0,2480,2241,2297,2465,0,2416,1740]","[3,1,3,1,0,3,3,3,0,1,2,3,1,3,1,0,1,0,3,1,3,2,3,3,3,0,1,0,0,1,2,3,1,2,2,1,0,1,0,2,1,3,2,2,3,3,2,1,2,0,0,0,3,2,1,3,2,1,0,0,1,2,1,3]"
1,train_0001,train,7,535,"[1868,1520,1740,2529,2346,1804,1868,1740,2348,2529,0,1868,2318,1932,2529,2299,2254,2150,1740,2367,1804,0,1868,1612,1740,2195,2480,2199,2395,2529,0,1676,2529,0,0,0,2346,2514,2297,0,2254,1676,0,0,1740,1868,0,2544,0,2495,2142,2348,1740,0,2480,1740,0,2480,2241,2297,2465,0,2416,1740]","[1605,802,1605,802,401,1605,1605,1605,401,802,802,1605,802,1605,802,401,802,401,1605,802,1605,802,1605,1605,1605,401,802,401,401,802,802,1605,802,802,802,401,401,802,401,802,802,1605,802,802,1605,1605,802,802,802,401,401,401,1605,802,802,1605,802,802,401,401,802,802,802,1605]","[64,128,128,0,64,192,0,64,0,64,128,0,0,0,0,0,0,0,64,64,0,0,0,64,0,192,64,64,128,0,128,-64,0,128,-64,64,64,128,64,64,64,-64,192,128,0,64,64,64,192,64,256,0,64,128,64,0,64,0,-64,64,192,0,128,192]","[64,128,128,0,64,192,0,64,0,64,128,0,0,0,0,0,0,0,64,64,0,0,0,64,0,192,64,64,128,0,128,-64,0,128,-64,64,64,128,64,64,64,-64,192,128,0,64,64,64,192,64,256,0,64,128,64,0,64,0,-64,64,192,0,128,192]","[3304,2260,3256,3015,2518,3376,3240,3192,2456,3079,930,3240,2831,3296,3015,2413,2775,2283,3192,2938,3184,802,3240,3080,3128,2514,3036,2390,2625,3015,930,3008,3015,930,738,465,2518,3130,2475,866,2839,3008,994,930,3128,3304,866,3092,994,2649,2532,2456,3192,930,3036,3128,866,2972,2298,2475,3151,802,3044,3320]","[3304,2260,3256,3015,2518,3376,3240,3192,2456,3079,930,3240,2831,3296,3015,2413,2775,2283,3192,2938,3184,802,3240,3080,3128,2514,3036,2390,2625,3015,930,3008,3015,930,738,465,2518,3130,2475,866,2839,3008,994,930,3128,3304,866,3092,994,2649,2532,2456,3192,930,3036,3128,866,2972,2298,2475,3151,802,3044,3320]","[""1"",""0"",""1"",""1"",""0"",""1"",""1"",""1"",""0"",""1"",""0"",""1"",""1"",""1"",""1"",""0"",""1"",""0"",""1"",""1"",""1"",""0"",""1"",""1"",""1"",""0"",""1"",""0"",""1"",""1"",""0"",""1"",""1"",""0"",""0"",""0"",""0"",""1"",""0"",""0"",""1"",""1"",""0"",""0"",""1"",""1"",""0"",""1"",""0"",""1"",""0"",""0"",""1"",""0"",""1"",""1"",""0"",""1"",""0"",""0"",""1"",""0"",""1"",""1""]","[0,2260,0,0,2518,0,0,0,2456,0,930,0,0,0,0,2413,0,2283,0,0,0,802,0,0,0,2514,0,2390,0,0,930,0,0,930,738,465,2518,0,2475,866,0,0,994,930,0,0,866,0,994,0,2532,2456,0,930,0,0,866,0,2298,2475,0,802,0,0]","[4,1,4,2,0,4,4,4,0,2,2,4,2,4,2,0,2,0,4,2,4,2,4,4,4,0,2,0,1,2,2,4,2,2,2,1,0,2,0,2,2,4,2,2,4,4,2,2,2,1,0,0,4,2,2,4,2,2,0,0,2,2,2,4]"
1,train_0001,train,8,480,"[0,2260,0,0,2518,0,0,0,2456,0,930,0,0,0,0,2413,0,2283,0,0,0,802,0,0,0,2514,0,2390,0,0,930,0,0,930,738,465,2518,0,2475,866,0,0,994,930,0,0,866,0,994,0,2532,2456,0,930,0,0,866,0,2298,2475,0,802,0,0]","[1440,720,1440,720,360,1440,1440,1440,360,720,720,1440,720,1440,720,360,720,360,1440,720,1440,720,1440,1440,1440,360,720,360,360,720,720,1440,720,720,720,360,360,720,360,720,720,1440,720,720,1440,1440,720,720,720,360,360,360,1440,720,720,1440,720,720,360,360,720,720,720,1440]","[64,-64,64,128,192,192,192,0,128,128,128,192,0,192,192,64,0,0,128,64,256,128,256,-128,0,0,128,0,192,256,192,0,192,128,192,384,192,128,128,128,-64,0,128,128,-64,256,320,64,128,256,64,128,0,128,64,192,384,128,320,128,64,192,0,64]","[64,-64,64,128,192,192,192,0,128,128,128,192,0,192,192,64,0,0,128,64,256,128,256,-128,0,0,128,0,192,256,192,0,192,128,192,384,192,128,128,128,-64,0,128,128,-64,256,320,64,128,256,64,128,0,128,64,192,384,128,320,128,64,192,0,64]","[1504,2634,1504,848,2756,1632,1632,1440,2637,848,1662,1632,720,1632,912,2536,720,2358,1568,784,1696,1550,1696,1312,1440,2560,848,2452,552,976,1726,1440,912,1662,1558,1151,2756,848,2654,1606,656,1440,1718,1662,1376,1696,1798,784,1718,616,2640,2637,1440,1662,784,1632,1862,848,2691,2654,784,1614,720,1504]","[1504,2634,1504,848,2756,1632,1632,1440,2637,848,1662,1632,720,1632,912,2536,720,2358,1568,784,1696,1550,1696,1312,1440,2560,848,2452,552,976,1726,1440,912,1662,1558,1151,2756,848,2654,1606,656,1440,1718,1662,1376,1696,1798,784,1718,616,2640,2637,1440,1662,784,1632,1862,848,2691,2654,784,1614,720,1504]","[""0"",""1"",""0"",""0"",""1"",""0"",""0"",""0"",""1"",""0"",""0"",""0"",""0"",""0"",""0"",""0"",""0"",""0"",""0"",""0"",""0"",""0"",""0"",""0"",""0"",""1"",""0"",""0"",""0"",""0"",""0"",""0"",""0"",""0"",""0"",""0"",""1"",""0"",""1"",""0"",""0"",""0"",""0"",""0"",""0"",""0"",""0"",""0"",""0"",""0"",""1"",""1"",""0"",""0"",""0"",""0"",""0"",""0"",""1"",""1"",""0"",""0"",""0"",""0""]","[1504,0,1504,848,0,1632,1632,1440,0,848,1662,1632,720,1632,912,2536,720,2358,1568,784,1696,1550,1696,1312,1440,0,848,2452,552,976,1726,1440,912,1662,1558,1151,0,848,0,1606,656,1440,1718,1662,1376,1696,1798,784,1718,616,0,0,1440,1662,784,1632,1862,848,0,0,784,1614,720,1504]","[4,2,4,2,1,4,4,4,1,2,2,4,2,4,2,0,2,0,4,2,4,2,4,4,4,1,2,0,1,2,2,4,2,2,2,1,1,2,1,2,2,4,2,2,4,4,2,2,2,1,1,1,4,2,2,4,2,2,1,1,2,2,2,4]"
1,train_0001,train,9,456,"[1504,0,1504,848,0,1632,1632,1440,0,848,1662,1632,720,1632,912,2536,720,2358,1568,784,1696,1550,1696,1312,1440,0,848,2452,552,976,1726,1440,912,1662,1558,1151,0,848,0,1606,656,1440,1718,1662,1376,1696,1798,784,1718,616,0,0,1440,1662,784,1632,1862,848,0,0,784,1614,720,1504]","[1368,684,1368,684,342,1368,1368,1368,342,684,684,1368,684,1368,684,342,684,342,1368,684,1368,684,1368,1368,1368,342,684,342,342,684,684,1368,684,684,684,342,342,684,342,684,684,1368,684,684,1368,1368,684,684,684,342,342,342,1368,684,684,1368,684,684,342,342,684,684,684,1368]","[128,-64,0,0,0,128,64,0,128,0,-128,64,128,0,-64,0,64,128,-64,0,0,0,0,0,64,64,0,0,-64,64,64,0,0,-64,128,0,-64,0,64,64,0,0,192,0,64,-64,0,0,64,64,64,64,0,0,64,64,64,128,0,128,128,0,0,0]","[128,-64,0,0,0,128,64,0,128,0,-128,64,128,0,-64,0,64,128,-64,0,0,0,0,0,64,64,0,0,-64,64,64,0,0,-64,128,0,-64,0,64,64,0,0,192,0,64,-64,0,0,64,64,64,64,0,0,64,64,64,128,0,128,128,0,0,0]","[2812,620,2684,1426,342,2924,2860,2628,470,1426,2011,2860,1442,2796,1418,2561,1378,2534,2676,1370,2852,2041,2852,2516,2692,406,1426,2488,761,1602,2259,2628,1482,2075,2176,1350,278,1426,406,2154,1258,2628,2380,2139,2636,2788,2258,1370,2252,945,406,406,2628,2139,1434,2860,2378,1554,342,470,1498,2097,1314,2684]","[2812,620,2684,1426,342,2924,2860,2628,470,1426,2011,2860,1442,2796,1418,2561,1378,2534,2676,1370,2852,2041,2852,2516,2692,406,1426,2488,761,1602,2259,2628,1482,2075,2176,1350,278,1426,406,2154,1258,2628,2380,2139,2636,2788,2258,1370,2252,945,406,406,2628,2139,1434,2860,2378,1554,342,470,1498,2097,1314,2684]","[""1"",""0"",""1"",""0"",""0"",""1"",""1"",""1"",""0"",""0"",""0"",""1"",""0"",""1"",""0"",""1"",""0"",""0"",""1"",""0"",""1"",""0"",""1"",""0"",""1"",""0"",""0"",""0"",""0"",""0"",""0"",""1"",""0"",""0"",""0"",""0"",""0"",""0"",""0"",""0"",""0"",""1"",""0"",""0"",""1"",""1"",""0"",""0"",""0"",""0"",""0"",""0"",""1"",""0"",""0"",""1"",""0"",""0"",""0"",""0"",""0"",""0"",""0"",""1""]","[0,620,0,1426,342,0,0,0,470,1426,2011,0,1442,0,1418,0,1378,2534,0,1370,0,2041,0,2516,0,406,1426,2488,761,1602,2259,0,1482,2075,2176,1350,278,1426,406,2154,1258,0,2380,2139,0,0,2258,1370,2252,945,406,406,0,2139,1434,0,2378,1554,342,470,1498,2097,1314,0]","[5,2,5,2,1,5,5,5,1,2,2,5,2,5,2,1,2,0,5,2,5,2,5,4,5,1,2,0,1,2,2,5,2,2,2,1,1,2,1,2,2,5,2,2,5,5,2,2,2,1,1,1,5,2,2,5,2,2,1,1,2,2,2,5]"
1,train_0001,train,10,455,"[0,620,0,1426,342,0,0,0,470,1426,2011,0,1442,0,1418,0,1378,2534,0,1370,0,2041,0,2516,0,406,1426,2488,761,1602,2259,0,1482,2075,2176,1350,278,1426,406,2154,1258,0,2380,2139,0,0,2258,1370,2252,945,406,406,0,2139,1434,0,2378,1554,342,470,1498,2097,1314,0]","[1365,682,1365,682,341,1365,1365,1365,341,682,682,1365,682,1365,682,341,682,341,1365,682,1365,682,1365,1365,1365,341,682,341,341,682,682,1365,682,682,682,341,341,682,341,682,682,1365,682,682,1365,1365,682,682,682,341,341,341,1365,682,682,1365,682,682,341,341,682,682,682,1365]","[128,-128,0,64,64,64,128,0,128,0,128,128,0,192,64,128,-64,64,0,0,64,128,128,-128,64,0,64,64,64,64,64,0,64,128,192,128,128,0,64,128,-64,-64,0,64,64,128,64,64,64,128,-64,128,0,128,64,0,256,64,64,64,0,192,0,0]","[128,-128,0,64,64,64,128,0,128,0,128,128,0,192,64,128,-64,64,0,0,64,128,128,-128,64,0,64,64,64,64,64,0,64,128,192,128,128,0,64,128,-64,-64,0,64,64,128,64,64,64,128,-64,128,0,128,64,0,256,64,64,64,0,192,0,0]","[1493,1097,1365,1994,705,1429,1493,1365,881,1930,2570,1493,1944,1557,1987,469,1824,2623,1365,1881,1429,2596,1493,3439,1429,697,1994,2582,1071,2148,2723,1365,2043,2626,2778,1651,713,1930,761,2695,1719,1301,2765,2618,1429,1493,2722,1945,2717,1296,633,825,1365,2682,2001,1365,3019,2106,705,817,1993,2709,1832,1365]","[1493,1097,1365,1994,705,1429,1493,1365,881,1930,2570,1493,1944,1557,1987,469,1824,2623,1365,1881,1429,2596,1493,3439,1429,697,1994,2582,1071,2148,2723,1365,2043,2626,2778,1651,713,1930,761,2695,1719,1301,2765,2618,1429,1493,2722,1945,2717,1296,633,825,1365,2682,2001,1365,3019,2106,705,817,1993,2709,1832,1365]","[""0"",""0"",""0"",""0"",""0"",""0"",""0"",""0"",""0"",""0"",""1"",""0"",""0"",""0"",""0"",""0"",""0"",""1"",""0"",""0"",""0"",""1"",""0"",""1"",""0"",""0"",""0"",""1"",""0"",""0"",""1"",""0"",""0"",""1"",""1"",""0"",""0"",""0"",""0"",""1"",""0"",""0"",""1"",""1"",""0"",""0"",""1"",""0"",""1"",""0"",""0"",""0"",""0"",""1"",""0"",""0"",""1"",""0"",""0"",""0"",""0"",""1"",""0"",""0""]","[1493,1097,1365,1994,705,1429,1493,1365,881,1930,0,1493,1944,1557,1987,469,1824,0,1365,1881,1429,0,1493,0,1429,697,1994,0,1071,2148,0,1365,2043,0,0,1651,713,1930,761,0,1719,1301,0,0,1429,1493,0,1945,0,1296,633,825,1365,0,2001,1365,0,2106,705,817,1993,0,1832,1365]","[5,2,5,2,1,5,5,5,1,2,3,5,2,5,2,1,2,1,5,2,5,3,5,5,5,1,2,1,1,2,3,5,2,3,3,1,1,2,1,3,2,5,3,3,5,5,3,2,3,1,1,1,5,3,2,5,3,2,1,1,2,3,2,5]"
1,train_0001,train,11,481,"[1493,1097,1365,1994,705,1429,1493,1365,881,1930,0,1493,1944,1557,1987,469,1824,0,1365,1881,1429,0,1493,0,1429,697,1994,0,1071,2148,0,1365,2043,0,0,1651,713,1930,761,0,1719,1301,0,0,1429,1493,0,1945,0,1296,633,825,1365,0,2001,1365,0,2106,705,817,1993,0,1832,1365]","[1443,721,1443,721,360,1443,1443,1443,360,721,721,1443,721,1443,721,360,721,360,1443,721,1443,721,1443,1443,1443,360,721,360,360,721,721,1443,721,721,721,360,360,721,360,721,721,1443,721,721,1443,1443,721,721,721,360,360,360,1443,721,721,1443,721,721,360,360,721,721,721,1443]","[64,64,128,64,64,192,0,128,0,128,256,0,0,0,-64,0,64,0,128,64,0,64,0,64,-64,192,0,128,128,0,128,-64,-64,192,64,128,64,128,0,64,64,-64,192,192,64,64,128,128,192,128,256,0,64,64,64,0,64,0,-64,64,128,0,128,192]","[64,64,128,64,64,192,0,128,0,128,256,0,0,0,-64,0,64,0,128,64,0,64,0,64,-64,192,0,128,128,0,128,-64,-64,192,64,128,64,128,0,64,64,-64,192,192,64,64,128,128,192,128,256,0,64,64,64,0,64,0,-64,64,128,0,128,192]","[2814,1745,2766,2530,1041,2886,2750,2766,1131,2538,977,2750,2422,2806,2396,771,2381,360,2766,2431,2694,785,2750,1507,2630,1162,2466,488,1426,2601,849,2574,2445,913,785,1933,1048,2538,1026,785,2290,2518,913,913,2758,2814,849,2551,913,1622,1170,1082,2702,785,2536,2638,785,2564,913,1139,2593,721,2452,2830]","[2814,1745,2766,2530,1041,2886,2750,2766,1131,2538,977,2750,2422,2806,2396,771,2381,360,2766,2431,2694,785,2750,1507,2630,1162,2466,488,1426,2601,849,2574,2445,913,785,1933,1048,2538,1026,785,2290,2518,913,913,2758,2814,849,2551,913,1622,1170,1082,2702,785,2536,2638,785,2564,913,1139,2593,721,2452,2830]","[""1"",""0"",""1"",""0"",""0"",""1"",""1"",""1"",""0"",""0"",""0"",""1"",""0"",""1"",""0"",""0"",""0"",""0"",""1"",""0"",""1"",""0"",""1"",""0"",""1"",""0"",""0"",""0"",""0"",""1"",""0"",""1"",""0"",""0"",""0"",""0"",""0"",""0"",""0"",""0"",""0"",""0"",""0"",""0"",""1"",""1"",""0"",""0"",""0"",""0"",""0"",""0"",""1"",""0"",""0"",""1"",""0"",""1"",""0"",""0"",""1"",""0"",""0"",""1""]","[0,1745,0,2530,1041,0,0,0,1131,2538,977,0,2422,0,2396,771,2381,360,0,2431,0,785,0,1507,0,1162,2466,488,1426,0,849,0,2445,913,785,1933,1048,2538,1026,785,2290,2518,913,913,0,0,849,2551,913,1622,1170,1082,0,785,2536,0,785,0,913,1139,0,721,2452,0]","[6,2,6,2,1,6,6,6,1,2,3,6,2,6,2,1,2,1,6,2,6,3,6,5,6,1,2,1,1,3,3,6,2,3,3,1,1,2,1,3,2,5,3,3,6,6,3,2,3,1,1,1,6,3,2,6,3,3,1,1,3,3,2,6]"
1,train_0001,train,12,505,"[0,1745,0,2530,1041,0,0,0,1131,2538,977,0,2422,0,2396,771,2381,360,0,2431,0,785,0,1507,0,1162,2466,488,1426,0,849,0,2445,913,785,1933,1048,2538,1026,785,2290,2518,913,913,0,0,849,2551,913,1622,1170,1082,0,785,2536,0,785,0,913,1139,0,721,2452,0]","[1515,757,1515,757,378,1515,1515,1515,378,757,757,1515,757,1515,757,378,757,378,1515,757,1515,757,1515,1515,1515,378,757,378,378,757,757,1515,757,757,757,378,378,757,378,757,757,1515,757,757,1515,1515,757,757,757,378,378,378,1515,757,757,1515,757,757,378,378,757,757,757,1515]","[64,-128,0,64,128,64,128,0,128,0,128,64,0,192,64,128,-64,64,0,0,192,128,128,-128,0,0,64,64,64,64,64,-64,64,128,128,128,64,64,128,128,-64,-64,0,64,0,192,128,0,64,192,-128,128,-64,128,64,128,256,64,64,64,64,192,0,0]","[64,-128,0,64,128,64,128,0,128,0,128,64,0,192,64,128,-64,64,0,0,192,128,128,-128,0,0,64,64,64,64,64,-64,64,128,128,128,64,64,128,128,-64,-64,0,64,0,192,128,0,64,192,-128,128,-64,128,64,128,256,64,64,64,64,192,0,0]","[1579,2156,1515,3035,1417,1579,1643,1515,1496,2978,1740,1579,2877,1707,2918,1181,2777,757,1515,2885,1707,1572,1643,2706,1515,1395,2979,869,1690,821,1564,1451,2961,1684,1572,2198,1359,3042,1404,1572,2697,3655,1556,1620,1515,1707,1628,2990,1620,1990,1274,1453,1451,1572,3040,1643,1700,821,1241,1439,821,1580,2903,1515]","[1579,2156,1515,3035,1417,1579,1643,1515,1496,2978,1740,1579,2877,1707,2918,1181,2777,757,1515,2885,1707,1572,1643,2706,1515,1395,2979,869,1690,821,1564,1451,2961,1684,1572,2198,1359,3042,1404,1572,2697,3655,1556,1620,1515,1707,1628,2990,1620,1990,1274,1453,1451,1572,3040,1643,1700,821,1241,1439,821,1580,2903,1515]","[""0"",""0"",""0"",""1"",""0"",""0"",""0"",""0"",""0"",""1"",""0"",""0"",""1"",""0"",""1"",""0"",""1"",""0"",""0"",""1"",""0"",""0"",""0"",""1"",""0"",""0"",""1"",""0"",""0"",""0"",""0"",""0"",""1"",""0"",""0"",""0"",""0"",""1"",""0"",""0"",""1"",""1"",""0"",""0"",""0"",""0"",""0"",""1"",""0"",""0"",""0"",""0"",""0"",""0"",""1"",""0"",""0"",""0"",""0"",""0"",""0"",""0"",""1"",""0""]","[1579,2156,1515,0,1417,1579,1643,1515,1496,0,1740,1579,0,1707,0,1181,0,757,1515,0,1707,1572,1643,0,1515,1395,0,869,1690,821,1564,1451,0,1684,1572,2198,1359,0,1404,1572,0,0,1556,1620,1515,1707,1628,0,1620,1990,1274,1453,1451,1572,0,1643,1700,821,1241,1439,821,1580,0,1515]","[6,2,6,3,1,6,6,6,1,3,3,6,3,6,3,1,3,1,6,3,6,3,6,6,6,1,3,1,1,3,3,6,3,3,3,1,1,3,1,3,3,6,3,3,6,6,3,3,3,1,1,1,6,3,3,6,3,3,1,1,3,3,3,6]"
1,train_0001,train,13,517,"[1579,2156,1515,0,1417,1579,1643,1515,1496,0,1740,1579,0,1707,0,1181,0,757,1515,0,1707,1572,1643,0,1515,1395,0,869,1690,821,1564,1451,0,1684,1572,2198,1359,0,1404,1572,0,0,1556,1620,1515,1707,1628,0,1620,1990,1274,1453,1451,1572,0,1643,1700,821,1241,1439,821,1580,0,1515]","[1551,775,1551,775,387,1551,1551,1551,387,775,775,1551,775,1551,775,387,775,387,1551,775,1551,775,1551,1551,1551,387,775,387,387,775,775,1551,775,775,775,387,387,775,387,775,775,1551,775,775,1551,1551,775,775,775,387,387,387,1551,775,775,1551,775,775,387,387,775,775,775,1551]","[0,64,64,64,64,64,64,0,0,128,0,64,0,0,128,-64,64,-64,128,0,0,0,128,0,0,0,64,-64,128,128,128,64,128,0,64,256,128,64,0,0,0,64,128,64,-64,64,192,64,128,64,192,0,64,0,0,64,64,64,192,64,0,-64,0,64]","[0,64,64,64,64,64,64,0,0,128,0,64,0,0,128,-64,64,-64,128,0,0,0,128,0,0,0,64,-64,128,128,128,64,128,0,64,256,128,64,0,0,0,64,128,64,-64,64,192,64,128,64,192,0,64,0,0,64,64,64,192,64,0,-64,0,64]","[2933,2726,2941,839,1691,2997,3053,2877,1696,903,2298,2997,775,3045,903,1357,839,986,3005,775,3045,2151,3117,1551,2877,1608,839,1084,1994,1622,2272,2885,903,2249,2215,2567,1705,839,1616,2151,775,1615,2265,2257,2813,3109,2392,839,2321,2193,1694,1659,2885,2151,775,3053,2327,1558,1665,1711,1494,2094,775,2941]","[2933,2726,2941,839,1691,2997,3053,2877,1696,903,2298,2997,775,3045,903,1357,839,986,3005,775,3045,2151,3117,1551,2877,1608,839,1084,1994,1622,2272,2885,903,2249,2215,2567,1705,839,1616,2151,775,1615,2265,2257,2813,3109,2392,839,2321,2193,1694,1659,2885,2151,775,3053,2327,1558,1665,1711,1494,2094,775,2941]","[""1"",""1"",""1"",""0"",""0"",""1"",""1"",""1"",""0"",""0"",""0"",""1"",""0"",""1"",""0"",""0"",""0"",""0"",""1"",""0"",""1"",""0"",""1"",""0"",""1"",""0"",""0"",""0"",""0"",""0"",""0"",""1"",""0"",""0"",""0"",""1"",""0"",""0"",""0"",""0"",""0"",""0"",""0"",""0"",""1"",""1"",""0"",""0"",""0"",""0"",""0"",""0"",""1"",""0"",""0"",""1"",""0"",""0"",""0"",""0"",""0"",""0"",""0"",""1""]","[0,0,0,839,1691,0,0,0,1696,903,2298,0,775,0,903,1357,839,986,0,775,0,2151,0,1551,0,1608,839,1084,1994,1622,2272,0,903,2249,2215,0,1705,839,1616,2151,775,1615,2265,2257,0,0,2392,839,2321,2193,1694,1659,0,2151,775,0,2327,1558,1665,1711,1494,2094,775,0]","[7,3,7,3,1,7,7,7,1,3,3,7,3,7,3,1,3,1,7,3,7,3,7,6,7,1,3,1,1,3,3,7,3,3,3,2,1,3,1,3,3,6,3,3,7,7,3,3,3,1,1,1,7,3,3,7,3,3,1,1,3,3,3,7]"
1,train_0001,train,14,521,"[0,0,0,839,1691,0,0,0,1696,903,2298,0,775,0,903,1357,839,986,0,775,0,2151,0,1551,0,1608,839,1084,1994,1622,2272,0,903,2249,2215,0,1705,839,1616,2151,775,1615,2265,2257,0,0,2392,839,2321,2193,1694,1659,0,2151,775,0,2327,1558,1665,1711,1494,2094,775,0]","[1563,781,1563,781,390,1563,1563,1563,390,781,781,1563,781,1563,781,390,781,390,1563,781,1563,781,1563,1563,1563,390,781,390,390,781,781,1563,781,781,781,390,390,781,390,781,781,1563,781,781,1563,1563,781,781,781,390,390,390,1563,781,781,1563,781,781,390,390,781,781,781,1563]","[128,-64,0,0,64,64,128,-64,128,0,128,128,0,192,64,128,-64,64,0,0,128,64,128,-128,0,0,128,64,64,64,64,-64,64,128,192,64,64,0,64,128,-64,-64,64,64,0,128,64,64,128,128,-64,128,-64,192,64,0,256,64,0,64,64,192,0,0]","[128,-64,0,0,64,64,128,-64,128,0,128,128,0,192,64,128,-64,64,0,0,128,64,128,-128,0,0,128,64,64,64,64,-64,64,128,192,64,64,0,64,128,-64,-64,64,64,0,128,64,64,128,128,-64,128,-64,192,64,0,256,64,0,64,64,192,0,0]","[1691,717,1563,1516,1934,1627,1691,1499,2002,1572,2920,1691,1460,1755,1636,1706,1452,1317,1563,1460,1691,2728,1691,2793,1563,1797,1644,1403,2199,2265,2833,1499,1636,2877,2912,454,1946,1516,1868,2792,1396,2913,2827,2820,1563,1691,2938,1580,2940,2437,1809,1970,1499,2856,1524,1563,3074,2209,1847,1952,2153,2806,1460,1563]","[1691,717,1563,1516,1934,1627,1691,1499,2002,1572,2920,1691,1460,1755,1636,1706,1452,1317,1563,1460,1691,2728,1691,2793,1563,1797,1644,1403,2199,2265,2833,1499,1636,2877,2912,454,1946,1516,1868,2792,1396,2913,2827,2820,1563,1691,2938,1580,2940,2437,1809,1970,1499,2856,1524,1563,3074,2209,1847,1952,2153,2806,1460,1563]","[""0"",""0"",""0"",""0"",""0"",""0"",""0"",""0"",""0"",""0"",""1"",""0"",""0"",""0"",""0"",""0"",""0"",""0"",""0"",""0"",""0"",""1"",""0"",""1"",""0"",""0"",""0"",""0"",""0"",""0"",""1"",""0"",""0"",""1"",""1"",""0"",""0"",""0"",""0"",""1"",""0"",""1"",""1"",""1"",""0"",""0"",""1"",""0"",""1"",""0"",""0"",""0"",""0"",""1"",""0"",""0"",""1"",""0"",""0"",""0"",""0"",""1"",""0"",""0""]","[1691,717,1563,1516,1934,1627,1691,1499,2002,1572,0,1691,1460,1755,1636,1706,1452,1317,1563,1460,1691,0,1691,0,1563,1797,1644,1403,2199,2265,0,1499,1636,0,0,454,1946,1516,1868,0,1396,0,0,0,1563,1691,0,1580,0,2437,1809,1970,1499,0,1524,1563,0,2209,1847,1952,2153,0,1460,1563]","[7,3,7,3,1,7,7,7,1,3,4,7,3,7,3,1,3,1,7,3,7,4,7,7,7,1,3,1,1,3,4,7,3,4,4,2,1,3,1,4,3,7,4,4,7,7,4,3,4,1,1,1,7,4,3,7,4,3,1,1,3,4,3,7]"
1,train_0001,train,15,520,"[1691,717,1563,1516,1934,1627,1691,1499,2002,1572,0,1691,1460,1755,1636,1706,1452,1317,1563,1460,1691,0,1691,0,1563,1797,1644,1403,2199,2265,0,1499,1636,0,0,454,1946,1516,1868,0,1396,0,0,0,1563,1691,0,1580,0,2437,1809,1970,1499,0,1524,1563,0,2209,1847,1952,2153,0,1460,1563]","[1560,780,1560,780,390,1560,1560,1560,390,780,780,1560,780,1560,780,390,780,390,1560,780,1560,780,1560,1560,1560,390,780,390,390,780,780,1560,780,780,780,390,390,780,390,780,780,1560,780,780,1560,1560,780,780,780,390,390,390,1560,780,780,1560,780,780,390,390,780,780,780,1560]","[64,64,128,64,64,192,0,128,0,128,192,0,0,0,0,0,0,0,64,64,-64,64,0,64,0,192,0,64,128,0,128,-64,0,128,64,128,64,128,64,64,64,-64,192,192,-64,64,128,128,192,64,256,0,64,64,64,0,64,0,-64,64,128,0,128,192]","[64,64,128,64,64,192,0,128,0,128,192,0,0,0,0,0,0,0,64,64,-64,64,0,64,0,192,0,64,128,0,128,-64,0,128,64,128,64,128,64,64,64,-64,192,192,-64,64,128,128,192,64,256,0,64,64,64,0,64,0,-64,64,128,0,128,192]","[3104,1472,3056,2171,2147,3176,3040,3000,2142,2284,972,3040,2058,3096,2212,1883,2051,1543,2992,2122,2976,844,3040,1624,2928,2155,2219,1682,2443,2762,908,2808,2212,908,844,916,2157,2235,2089,844,2066,1496,972,972,2864,3104,908,2291,972,2587,2229,2114,2936,844,2178,2928,844,2713,1943,2162,2792,780,2186,3120]","[3104,1472,3056,2171,2147,3176,3040,3000,2142,2284,972,3040,2058,3096,2212,1883,2051,1543,2992,2122,2976,844,3040,1624,2928,2155,2219,1682,2443,2762,908,2808,2212,908,844,916,2157,2235,2089,844,2066,1496,972,972,2864,3104,908,2291,972,2587,2229,2114,2936,844,2178,2928,844,2713,1943,2162,2792,780,2186,3120]","[""1"",""0"",""1"",""0"",""0"",""1"",""1"",""1"",""0"",""0"",""0"",""1"",""0"",""1"",""0"",""0"",""0"",""0"",""1"",""0"",""1"",""0"",""1"",""0"",""1"",""0"",""0"",""0"",""0"",""1"",""0"",""1"",""0"",""0"",""0"",""0"",""0"",""0"",""0"",""0"",""0"",""0"",""0"",""0"",""1"",""1"",""0"",""0"",""0"",""1"",""0"",""0"",""1"",""0"",""0"",""1"",""0"",""1"",""0"",""0"",""1"",""0"",""0"",""1""]","[0,1472,0,2171,2147,0,0,0,2142,2284,972,0,2058,0,2212,1883,2051,1543,0,2122,0,844,0,1624,0,2155,2219,1682,2443,0,908,0,2212,908,844,916,2157,2235,2089,844,2066,1496,972,972,0,0,908,2291,972,0,2229,2114,0,844,2178,0,844,0,1943,2162,0,780,2186,0]","[8,3,8,3,1,8,8,8,1,3,4,8,3,8,3,1,3,1,8,3,8,4,8,7,8,1,3,1,1,4,4,8,3,4,4,2,1,3,1,4,3,7,4,4,8,8,4,3,4,2,1,1,8,4,3,8,4,4,1,1,4,4,3,8]"
1,train_0001,train,16,529,"[0,1472,0,2171,2147,0,0,0,2142,2284,972,0,2058,0,2212,1883,2051,1543,0,2122,0,844,0,1624,0,2155,2219,1682,2443,0,908,0,2212,908,844,916,2157,2235,2089,844,2066,1496,972,972,0,0,908,2291,972,0,2229,2114,0,844,2178,0,844,0,1943,2162,0,780,2186,0]","[1587,793,1587,793,396,1587,1587,1587,396,793,793,1587,793,1587,793,396,793,396,1587,793,1587,793,1587,1587,1587,396,793,396,396,793,793,1587,793,793,793,396,396,793,396,793,793,1587,793,793,1587,1587,793,793,793,396,396,396,1587,793,793,1587,793,793,396,396,793,793,793,1587]","[64,-128,0,64,128,64,128,0,128,0,128,64,0,192,64,128,-64,64,0,0,256,128,128,-128,0,0,64,64,64,64,64,-64,64,128,128,128,64,64,128,128,-64,-64,0,64,0,192,128,0,0,192,-128,128,-64,128,64,128,320,64,64,64,64,192,0,0]","[64,-128,0,64,128,64,128,0,128,0,128,64,0,192,64,128,-64,64,0,0,256,128,128,-128,0,0,64,64,64,64,64,-64,64,128,128,128,64,64,128,128,-64,-64,0,64,0,192,128,0,0,192,-128,128,-64,128,64,128,320,64,64,64,64,192,0,0]","[1651,1953,1587,2757,2403,1651,1715,1587,2399,2792,1772,1651,2594,1779,2793,2172,2524,1811,1587,2650,1843,1660,1715,2880,1587,2282,2799,1932,2598,857,1652,1523,2793,1716,1660,1326,2348,2813,2352,1660,2537,2832,1644,1708,1587,1779,1716,2798,1644,588,2219,2374,1523,1660,2763,1715,1852,857,2161,2352,857,1668,2706,1587]","[1651,1953,1587,2757,2403,1651,1715,1587,2399,2792,1772,1651,2594,1779,2793,2172,2524,1811,1587,2650,1843,1660,1715,2880,1587,2282,2799,1932,2598,857,1652,1523,2793,1716,1660,1326,2348,2813,2352,1660,2537,2832,1644,1708,1587,1779,1716,2798,1644,588,2219,2374,1523,1660,2763,1715,1852,857,2161,2352,857,1668,2706,1587]","[""0"",""0"",""0"",""1"",""0"",""0"",""0"",""0"",""0"",""1"",""0"",""0"",""1"",""0"",""1"",""0"",""0"",""0"",""0"",""1"",""0"",""0"",""0"",""1"",""0"",""0"",""1"",""0"",""1"",""0"",""0"",""0"",""1"",""0"",""0"",""0"",""0"",""1"",""0"",""0"",""0"",""1"",""0"",""0"",""0"",""0"",""0"",""1"",""0"",""0"",""0"",""0"",""0"",""0"",""1"",""0"",""0"",""0"",""0"",""0"",""0"",""0"",""1"",""0""]","[1651,1953,1587,0,2403,1651,1715,1587,2399,0,1772,1651,0,1779,0,2172,2524,1811,1587,0,1843,1660,1715,0,1587,2282,0,1932,0,857,1652,1523,0,1716,1660,1326,2348,0,2352,1660,2537,0,1644,1708,1587,1779,1716,0,1644,588,2219,2374,1523,1660,0,1715,1852,857,2161,2352,857,1668,0,1587]","[8,3,8,4,1,8,8,8,1,4,4,8,4,8,4,1,3,1,8,4,8,4,8,8,8,1,4,1,2,4,4,8,4,4,4,2,1,4,1,4,3,8,4,4,8,8,4,4,4,2,1,1,8,4,4,8,4,4,1,1,4,4,4,8]"
1,train_0001,train,17,525,"[1651,1953,1587,0,2403,1651,1715,1587,2399,0,1772,1651,0,1779,0,2172,2524,1811,1587,0,1843,1660,1715,0,1587,2282,0,1932,0,857,1652,1523,0,1716,1660,1326,2348,0,2352,1660,2537,0,1644,1708,1587,1779,1716,0,1644,588,2219,2374,1523,1660,0,1715,1852,857,2161,2352,857,1668,0,1587]","[1575,787,1575,787,393,1575,1575,1575,393,787,787,1575,787,1575,787,393,787,393,1575,787,1575,787,1575,1575,1575,393,787,393,393,787,787,1575,787,787,787,393,393,787,393,787,787,1575,787,787,1575,1575,787,787,787,393,393,393,1575,787,787,1575,787,787,393,393,787,787,787,1575]","[0,64,64,128,0,128,64,0,0,64,0,128,0,0,64,0,64,-64,128,0,0,0,128,0,-64,0,64,-64,128,192,128,64,64,0,64,192,64,64,0,0,0,64,128,64,-64,0,192,64,128,64,192,0,64,0,0,64,64,64,192,64,0,0,0,64]","[0,64,64,128,0,128,64,0,0,64,0,128,0,0,64,0,64,-64,128,0,0,0,128,0,-64,0,64,-64,128,192,128,64,64,0,64,192,64,64,0,0,0,64,128,64,-64,0,192,64,128,64,192,0,64,0,0,64,64,64,192,64,0,0,0,64]","[3020,2560,3028,915,2496,3148,3140,2964,2493,851,2338,3148,787,3132,851,2294,3060,1914,3092,787,3188,2240,3204,1575,2900,2390,851,2020,521,1729,2361,2972,851,2289,2304,1746,2512,851,2451,2240,3007,1639,2354,2346,2900,3132,2481,851,2354,972,2527,2471,2972,2240,787,3140,2472,1601,2476,2515,1537,2247,787,3028]","[3020,2560,3028,915,2496,3148,3140,2964,2493,851,2338,3148,787,3132,851,2294,3060,1914,3092,787,3188,2240,3204,1575,2900,2390,851,2020,521,1729,2361,2972,851,2289,2304,1746,2512,851,2451,2240,3007,1639,2354,2346,2900,3132,2481,851,2354,972,2527,2471,2972,2240,787,3140,2472,1601,2476,2515,1537,2247,787,3028]","[""1"",""1"",""1"",""0"",""0"",""1"",""1"",""1"",""0"",""0"",""0"",""1"",""0"",""1"",""0"",""0"",""1"",""0"",""1"",""0"",""1"",""0"",""1"",""0"",""1"",""0"",""0"",""0"",""0"",""0"",""0"",""1"",""0"",""0"",""0"",""0"",""0"",""0"",""0"",""0"",""1"",""0"",""0"",""0"",""1"",""1"",""0"",""0"",""0"",""0"",""0"",""0"",""1"",""0"",""0"",""1"",""0"",""0"",""0"",""0"",""0"",""0"",""0"",""1""]","[0,0,0,915,2496,0,0,0,2493,851,2338,0,787,0,851,2294,0,1914,0,787,0,2240,0,1575,0,2390,851,2020,521,1729,2361,0,851,2289,2304,1746,2512,851,2451,2240,0,1639,2354,2346,0,0,2481,851,2354,972,2527,2471,0,2240,787,0,2472,1601,2476,2515,1537,2247,787,0]","[9,4,9,4,1,9,9,9,1,4,4,9,4,9,4,1,4,1,9,4,9,4,9,8,9,1,4,1,2,4,4,9,4,4,4,2,1,4,1,4,4,8,4,4,9,9,4,4,4,2,1,1,9,4,4,9,4,4,1,1,4,4,4,9]"
1,train_0001,train,18,513,"[0,0,0,915,2496,0,0,0,2493,851,2338,0,787,0,851,2294,0,1914,0,787,0,2240,0,1575,0,2390,851,2020,521,1729,2361,0,851,2289,2304,1746,2512,851,2451,2240,0,1639,2354,2346,0,0,2481,851,2354,972,2527,2471,0,2240,787,0,2472,1601,2476,2515,1537,2247,787,0]","[1539,769,1539,769,384,1539,1539,1539,384,769,769,1539,769,1539,769,384,769,384,1539,769,1539,769,1539,1539,1539,384,769,384,384,769,769,1539,769,769,769,384,384,769,384,769,769,1539,769,769,1539,1539,769,769,769,384,384,384,1539,769,769,1539,769,769,384,384,769,769,769,1539]","[128,-128,0,0,128,64,128,0,128,64,128,128,0,192,128,64,-64,64,0,64,128,128,128,-128,64,0,64,64,64,64,64,-64,128,128,256,128,128,0,64,128,-64,-64,64,64,0,192,64,64,128,128,-128,128,-64,128,64,0,256,64,64,64,0,192,0,0]","[128,-128,0,0,128,64,128,0,128,64,128,128,0,192,128,64,-64,64,0,64,128,128,128,-128,64,0,64,64,64,64,64,-64,128,128,256,128,128,0,64,128,-64,-64,64,64,0,192,64,64,128,128,-128,128,-64,128,64,0,256,64,64,64,0,192,0,0]","[1667,641,1539,1570,2696,1603,1667,1539,2694,1578,2943,1667,1458,1731,1642,2456,705,2123,1539,1522,1667,2857,1667,2790,1603,2476,1578,2216,904,2346,2899,1475,1642,2900,3041,2040,2710,1514,2593,2857,705,2910,2893,2886,1539,1731,3004,1578,2957,1363,2468,2675,1475,2857,1522,1539,3188,2234,2615,2649,2114,2928,1458,1539]","[1667,641,1539,1570,2696,1603,1667,1539,2694,1578,2943,1667,1458,1731,1642,2456,705,2123,1539,1522,1667,2857,1667,2790,1603,2476,1578,2216,904,2346,2899,1475,1642,2900,3041,2040,2710,1514,2593,2857,705,2910,2893,2886,1539,1731,3004,1578,2957,1363,2468,2675,1475,2857,1522,1539,3188,2234,2615,2649,2114,2928,1458,1539]","[""0"",""0"",""0"",""0"",""1"",""0"",""0"",""0"",""1"",""0"",""1"",""0"",""0"",""0"",""0"",""0"",""0"",""0"",""0"",""0"",""0"",""1"",""0"",""1"",""0"",""0"",""0"",""0"",""0"",""0"",""1"",""0"",""0"",""1"",""1"",""0"",""1"",""0"",""1"",""1"",""0"",""1"",""1"",""1"",""0"",""0"",""1"",""0"",""1"",""0"",""0"",""1"",""0"",""1"",""0"",""0"",""1"",""0"",""1"",""1"",""0"",""1"",""0"",""0""]","[1667,641,1539,1570,0,1603,1667,1539,0,1578,0,1667,1458,1731,1642,2456,705,2123,1539,1522,1667,0,1667,0,1603,2476,1578,2216,904,2346,0,1475,1642,0,0,2040,0,1514,0,0,705,0,0,0,1539,1731,0,1578,0,1363,2468,0,1475,0,1522,1539,0,2234,0,0,2114,0,1458,1539]","[9,4,9,4,2,9,9,9,2,4,5,9,4,9,4,1,4,1,9,4,9,5,9,9,9,1,4,1,2,4,5,9,4,5,5,2,2,4,2,5,4,9,5,5,9,9,5,4,5,2,1,2,9,5,4,9,5,4,2,2,4,5,4,9]"
1,train_0001,train,19,531,"[1667,641,1539,1570,0,1603,1667,1539,0,1578,0,1667,1458,1731,1642,2456,705,2123,1539,1522,1667,0,1667,0,1603,2476,1578,2216,904,2346,0,1475,1642,0,0,2040,0,1514,0,0,705,0,0,0,1539,1731,0,1578,0,1363,2468,0,1475,0,1522,1539,0,2234,0,0,2114,0,1458,1539]","[1593,796,1593,796,398,1593,1593,1593,398,796,796,1593,796,1593,796,398,796,398,1593,796,1593,796,1593,1593,1593,398,796,398,398,796,796,1593,796,796,796,398,398,796,398,796,796,1593,796,796,1593,1593,796,796,796,398,398,398,1593,796,796,1593,796,796,398,398,796,796,796,1593]","[192,0,128,64,64,256,64,128,128,128,64,0,128,0,-64,0,0,128,0,64,-64,64,0,64,64,256,0,64,64,64,192,-64,0,64,128,128,0,128,128,128,64,-64,256,192,64,0,128,128,192,128,320,64,192,64,128,64,64,64,0,192,192,64,128,128]","[192,0,128,64,64,256,64,128,128,128,64,0,128,0,-64,0,0,128,0,64,-64,64,0,64,64,256,0,64,64,64,192,-64,0,64,128,128,0,128,128,128,64,-64,256,192,64,0,128,128,192,128,320,64,192,64,128,64,64,64,0,192,192,64,128,128]","[3244,1357,3068,2234,462,3252,3116,3068,526,2305,860,3052,2200,3108,2169,2547,1413,2384,2940,2192,2988,860,3052,1657,3060,2821,2177,2401,1253,2913,988,2820,2233,860,924,2311,398,2249,526,924,1477,1529,1052,988,3004,3108,924,2305,988,1719,2878,462,3076,860,2256,3004,860,2815,398,590,2838,860,2200,3068]","[3244,1357,3068,2234,462,3252,3116,3068,526,2305,860,3052,2200,3108,2169,2547,1413,2384,2940,2192,2988,860,3052,1657,3060,2821,2177,2401,1253,2913,988,2820,2233,860,924,2311,398,2249,526,924,1477,1529,1052,988,3004,3108,924,2305,988,1719,2878,462,3076,860,2256,3004,860,2815,398,590,2838,860,2200,3068]","[""1"",""0"",""1"",""0"",""0"",""1"",""1"",""1"",""0"",""0"",""0"",""1"",""0"",""1"",""0"",""0"",""0"",""0"",""1"",""0"",""1"",""0"",""1"",""0"",""1"",""1"",""0"",""0"",""0"",""1"",""0"",""1"",""0"",""0"",""0"",""0"",""0"",""0"",""0"",""0"",""0"",""0"",""0"",""0"",""1"",""1"",""0"",""0"",""0"",""0"",""1"",""0"",""1"",""0"",""0"",""1"",""0"",""1"",""0"",""0"",""1"",""0"",""0"",""1""]","[0,1357,0,2234,462,0,0,0,526,2305,860,0,2200,0,2169,2547,1413,2384,0,2192,0,860,0,1657,0,0,2177,2401,1253,0,988,0,2233,860,924,2311,398,2249,526,924,1477,1529,1052,988,0,0,924,2305,988,1719,0,462,0,860,2256,0,860,0,398,590,0,860,2200,0]","[10,4,10,4,2,10,10,10,2,4,5,10,4,10,4,1,4,1,10,4,10,5,10,9,10,2,4,1,2,5,5,10,4,5,5,2,2,4,2,5,4,9,5,5,10,10,5,4,5,2,2,2,10,5,4,10,5,5,2,2,5,5,4,10]"
2,train_0002,train,0,528,"[0,0,0,0,0,0,0,0,0,0,0,0,0,0,0,0,0,0,0,0,0,0,0,0,0,0,0,0,0,0,0,0,0,0,0,0,0,0,0,0,0,0,0,0,0,0,0,0,0,0,0,0,0,0,0,0,0,0,0,0,0,0,0,0]","[1584,792,1584,792,396,1584,1584,1584,396,792,792,1584,792,1584,792,396,792,396,1584,792,1584,792,1584,1584,1584,396,792,396,396,792,792,1584,792,792,792,396,396,792,396,792,792,1584,792,792,1584,1584,792,792,792,396,396,396,1584,792,792,1584,792,792,396,396,792,792,792,1584]","[0,0,0,0,0,0,0,0,0,0,0,0,0,0,0,0,0,0,0,0,0,0,0,0,0,0,0,0,0,0,0,0,0,0,0,0,0,0,0,0,0,0,0,0,0,0,0,0,0,0,0,0,0,0,0,0,0,0,0,0,0,0,0,0]","[0,0,0,0,0,0,0,0,0,0,0,0,0,0,0,0,0,0,0,0,0,0,0,0,0,0,0,0,0,0,0,0,0,0,0,0,0,0,0,0,0,0,0,0,0,0,0,0,0,0,0,0,0,0,0,0,0,0,0,0,0,0,0,0]","[1584,792,1584,792,396,1584,1584,1584,396,792,792,1584,792,1584,792,396,792,396,1584,792,1584,792,1584,1584,1584,396,792,396,396,792,792,1584,792,792,792,396,396,792,396,792,792,1584,792,792,1584,1584,792,792,792,396,396,396,1584,792,792,1584,792,792,396,396,792,792,792,1584]","[1584,792,1584,792,396,1584,1584,1584,396,792,792,1584,792,1584,792,396,792,396,1584,792,1584,792,1584,1584,1584,396,792,396,396,792,792,1584,792,792,792,396,396,792,396,792,792,1584,792,792,1584,1584,792,792,792,396,396,396,1584,792,792,1584,792,792,396,396,792,792,792,1584]","[""0"",""0"",""0"",""0"",""0"",""0"",""0"",""0"",""0"",""0"",""0"",""0"",""0"",""0"",""0"",""0"",""0"",""0"",""0"",""0"",""0"",""0"",""0"",""0"",""0"",""0"",""0"",""0"",""0"",""0"",""0"",""0"",""0"",""0"",""0"",""0"",""0"",""0"",""0"",""0"",""0"",""0"",""0"",""0"",""0"",""0"",""0"",""0"",""0"",""0"",""0"",""0"",""0"",""0"",""0"",""0"",""0"",""0"",""0"",""0"",""0"",""0"",""0"",""0""]","[1584,792,1584,792,396,1584,1584,1584,396,792,792,1584,792,1584,792,396,792,396,1584,792,1584,792,1584,1584,1584,396,792,396,396,792,792,1584,792,792,792,396,396,792,396,792,792,1584,792,792,1584,1584,792,792,792,396,396,396,1584,792,792,1584,792,792,396,396,792,792,792,1584]","[0,0,0,0,0,0,0,0,0,0,0,0,0,0,0,0,0,0,0,0,0,0,0,0,0,0,0,0,0,0,0,0,0,0,0,0,0,0,0,0,0,0,0,0,0,0,0,0,0,0,0,0,0,0,0,0,0,0,0,0,0,0,0,0]"
2,train_0002,train,1,529,"[1584,792,1584,792,396,1584,1584,1584,396,792,792,1584,792,1584,792,396,792,396,1584,792,1584,792,1584,1584,1584,396,792,396,396,792,792,1584,792,792,792,396,396,792,396,792,792,1584,792,792,1584,1584,792,792,792,396,396,396,1584,792,792,1584,792,792,396,396,792,792,792,1584]","[1587,793,1587,793,396,1587,1587,1587,396,793,793,1587,793,1587,793,396,793,396,1587,793,1587,793,1587,1587,1587,396,793,396,396,793,793,1587,793,793,793,396,396,793,396,793,793,1587,793,793,1587,1587,793,793,793,396,396,396,1587,793,793,1587,793,793,396,396,793,793,793,1587]","[0,0,0,0,0,0,0,0,0,0,0,0,0,0,0,0,0,0,0,0,0,0,0,0,0,0,0,0,0,0,0,0,0,0,0,0,0,0,0,0,0,0,0,0,0,0,0,0,0,0,0,0,0,0,0,0,0,0,0,0,0,0,0,0]","[0,0,0,0,0,0,0,0,0,0,0,0,0,0,0,0,0,0,0,0,0,0,0,0,0,0,0,0,0,0,0,0,0,0,0,0,0,0,0,0,0,0,0,0,0,0,0,0,0,0,0,0,0,0,0,0,0,0,0,0,0,0,0,0]","[2973,1486,2973,1486,743,2973,2973,2973,743,1486,1486,2973,1486,2973,1486,743,1486,743,2973,1486,2973,1486,2973,2973,2973,743,1486,743,743,1486,1486,2973,1486,1486,1486,743,743,1486,743,1486,1486,2973,1486,1486,2973,2973,1486,1486,1486,743,743,743,2973,1486,1486,2973,1486,1486,743,743,1486,1486,1486,2973]","[2973,1486,2973,1486,743,2973,2973,2973,743,1486,1486,2973,1486,2973,1486,743,1486,743,2973,1486,2973,1486,2973,2973,2973,743,1486,743,743,1486,1486,2973,1486,1486,1486,743,743,1486,743,1486,1486,2973,1486,1486,2973,2973,1486,1486,1486,743,743,743,2973,1486,1486,2973,1486,1486,743,743,1486,1486,1486,2973]","[""1"",""0"",""1"",""0"",""0"",""1"",""1"",""1"",""0"",""0"",""0"",""1"",""0"",""1"",""0"",""0"",""0"",""0"",""1"",""0"",""1"",""0"",""1"",""1"",""1"",""0"",""0"",""0"",""0"",""0"",""0"",""1"",""0"",""0"",""0"",""0"",""0"",""0"",""0"",""0"",""0"",""1"",""0"",""0"",""1"",""1"",""0"",""0"",""0"",""0"",""0"",""0"",""1"",""0"",""0"",""1"",""0"",""0"",""0"",""0"",""0"",""0"",""0"",""1""]","[0,1486,0,1486,743,0,0,0,743,1486,1486,0,1486,0,1486,743,1486,743,0,1486,0,1486,0,0,0,743,1486,743,743,1486,1486,0,1486,1486,1486,743,743,1486,743,1486,1486,0,1486,1486,0,0,1486,1486,1486,743,743,743,0,1486,1486,0,1486,1486,743,743,1486,1486,1486,0]","[1,0,1,0,0,1,1,1,0,0,0,1,0,1,0,0,0,0,1,0,1,0,1,1,1,0,0,0,0,0,0,1,0,0,0,0,0,0,0,0,0,1,0,0,1,1,0,0,0,0,0,0,1,0,0,1,0,0,0,0,0,0,0,1]"
2,train_0002,train,2,515,"[0,1486,0,1486,743,0,0,0,743,1486,1486,0,1486,0,1486,743,1486,743,0,1486,0,1486,0,0,0,743,1486,743,743,1486,1486,0,1486,1486,1486,743,743,1486,743,1486,1486,0,1486,1486,0,0,1486,1486,1486,743,743,743,0,1486,1486,0,1486,1486,743,743,1486,1486,1486,0]","[1545,772,1545,772,386,1545,1545,1545,386,772,772,1545,772,1545,772,386,772,386,1545,772,1545,772,1545,1545,1545,386,772,386,386,772,772,1545,772,772,772,386,386,772,386,772,772,1545,772,772,1545,1545,772,772,772,386,386,386,1545,772,772,1545,772,772,386,386,772,772,772,1545]","[128,-128,0,64,64,64,128,0,128,64,192,128,0,192,64,128,-64,64,0,0,64,128,128,-128,0,0,64,64,64,64,64,-64,64,128,256,128,64,0,64,128,-64,-64,0,128,0,128,128,128,64,128,-64,128,0,128,64,0,256,64,64,64,0,192,0,0]","[128,-128,0,64,64,64,128,0,128,64,192,128,0,192,64,128,-64,64,0,0,64,128,128,-128,0,0,64,64,64,64,64,-64,64,128,256,128,64,0,64,128,-64,-64,0,128,0,128,128,128,64,128,-64,128,0,128,64,0,256,64,64,64,0,192,0,0]","[1673,1945,1545,2137,1101,1609,1673,1545,1165,2137,2265,1673,2073,1737,2137,1165,2009,1101,1545,2073,1609,2201,1673,1417,1545,1037,2137,1101,1101,2137,2137,1481,2137,2201,2329,1165,1101,2073,1101,2201,2009,1481,2073,2201,1545,1673,2201,2201,2137,1165,973,1165,1545,2201,2137,1545,2329,2137,1101,1101,2073,2265,2073,1545]","[1673,1945,1545,2137,1101,1609,1673,1545,1165,2137,2265,1673,2073,1737,2137,1165,2009,1101,1545,2073,1609,2201,1673,1417,1545,1037,2137,1101,1101,2137,2137,1481,2137,2201,2329,1165,1101,2073,1101,2201,2009,1481,2073,2201,1545,1673,2201,2201,2137,1165,973,1165,1545,2201,2137,1545,2329,2137,1101,1101,2073,2265,2073,1545]","[""0"",""0"",""0"",""0"",""0"",""0"",""0"",""0"",""0"",""0"",""0"",""0"",""0"",""0"",""0"",""0"",""0"",""0"",""0"",""0"",""0"",""0"",""0"",""0"",""0"",""0"",""0"",""0"",""0"",""0"",""0"",""0"",""0"",""0"",""0"",""0"",""0"",""0"",""0"",""0"",""0"",""0"",""0"",""0"",""0"",""0"",""0"",""0"",""0"",""0"",""0"",""0"",""0"",""0"",""0"",""0"",""0"",""0"",""0"",""0"",""0"",""0"",""0"",""0""]","[1673,1945,1545,2137,1101,1609,1673,1545,1165,2137,2265,1673,2073,1737,2137,1165,2009,1101,1545,2073,1609,2201,1673,1417,1545,1037,2137,1101,1101,2137,2137,1481,2137,2201,2329,1165,1101,2073,1101,2201,2009,1481,2073,2201,1545,1673,2201,2201,2137,1165,973,1165,1545,2201,2137,1545,2329,2137,1101,1101,2073,2265,2073,1545]","[1,0,1,0,0,1,1,1,0,0,0,1,0,1,0,0,0,0,1,0,1,0,1,1,1,0,0,0,0,0,0,1,0,0,0,0,0,0,0,0,0,1,0,0,1,1,0,0,0,0,0,0,1,0,0,1,0,0,0,0,0,0,0,1]"
2,train_0002,train,3,522,"[1673,1945,1545,2137,1101,1609,1673,1545,1165,2137,2265,1673,2073,1737,2137,1165,2009,1101,1545,2073,1609,2201,1673,1417,1545,1037,2137,1101,1101,2137,2137,1481,2137,2201,2329,1165,1101,2073,1101,2201,2009,1481,2073,2201,1545,1673,2201,2201,2137,1165,973,1165,1545,2201,2137,1545,2329,2137,1101,1101,2073,2265,2073,1545]","[1566,783,1566,783,391,1566,1566,1566,391,783,783,1566,783,1566,783,391,783,391,1566,783,1566,783,1566,1566,1566,391,783,391,391,783,783,1566,783,783,783,391,391,783,391,783,783,1566,783,783,1566,1566,783,783,783,391,391,391,1566,783,783,1566,783,783,391,391,783,783,783,1566]","[0,0,0,0,0,0,0,0,0,0,0,0,0,0,0,0,0,0,0,0,0,0,0,0,0,0,0,0,0,0,0,0,0,0,0,0,0,0,0,0,0,0,0,0,0,0,0,0,0,0,0,0,0,0,0,0,0,0,0,0,0,0,0,0]","[0,0,0,0,0,0,0,0,0,0,0,0,0,0,0,0,0,0,0,0,0,0,0,0,0,0,0,0,0,0,0,0,0,0,0,0,0,0,0,0,0,0,0,0,0,0,0,0,0,0,0,0,0,0,0,0,0,0,0,0,0,0,0,0]","[3030,2485,2918,2653,1355,2974,3030,2918,1411,2653,2765,3030,2597,3086,2653,1411,2541,1355,2918,2597,2974,2709,3030,2806,2918,1299,2653,1355,1355,2653,2653,2862,2653,2709,2821,1411,1355,2597,1355,2709,2541,2862,2597,2709,2918,3030,2709,2709,2653,1411,1243,1411,2918,2709,2653,2918,2821,2653,1355,1355,2597,2765,2597,2918]","[3030,2485,2918,2653,1355,2974,3030,2918,1411,2653,2765,3030,2597,3086,2653,1411,2541,1355,2918,2597,2974,2709,3030,2806,2918,1299,2653,1355,1355,2653,2653,2862,2653,2709,2821,1411,1355,2597,1355,2709,2541,2862,2597,2709,2918,3030,2709,2709,2653,1411,1243,1411,2918,2709,2653,2918,2821,2653,1355,1355,2597,2765,2597,2918]","[""1"",""0"",""1"",""1"",""0"",""1"",""1"",""1"",""0"",""1"",""1"",""1"",""1"",""1"",""1"",""0"",""0"",""0"",""1"",""1"",""1"",""1"",""1"",""1"",""1"",""0"",""1"",""0"",""0"",""1"",""1"",""1"",""1"",""1"",""1"",""0"",""0"",""1"",""0"",""1"",""0"",""1"",""1"",""1"",""1"",""1"",""1"",""1"",""1"",""0"",""0"",""0"",""1"",""1"",""1"",""1"",""1"",""1"",""0"",""0"",""1"",""1"",""1"",""1""]","[0,2485,0,0,1355,0,0,0,1411,0,0,0,0,0,0,1411,2541,1355,0,0,0,0,0,0,0,1299,0,1355,1355,0,0,0,0,0,0,1411,1355,0,1355,0,2541,0,0,0,0,0,0,0,0,1411,1243,1411,0,0,0,0,0,0,1355,1355,0,0,0,0]","[2,0,2,1,0,2,2,2,0,1,1,2,1,2,1,0,0,0,2,1,2,1,2,2,2,0,1,0,0,1,1,2,1,1,1,0,0,1,0,1,0,2,1,1,2,2,1,1,1,0,0,0,2,1,1,2,1,1,0,0,1,1,1,2]"
2,train_0002,train,4,523,"[0,2485,0,0,1355,0,0,0,1411,0,0,0,0,0,0,1411,2541,1355,0,0,0,0,0,0,0,1299,0,1355,1355,0,0,0,0,0,0,1411,1355,0,1355,0,2541,0,0,0,0,0,0,0,0,1411,1243,1411,0,0,0,0,0,0,1355,1355,0,0,0,0]","[1569,784,1569,784,392,1569,1569,1569,392,784,784,1569,784,1569,784,392,784,392,1569,784,1569,784,1569,1569,1569,392,784,392,392,784,784,1569,784,784,784,392,392,784,392,784,784,1569,784,784,1569,1569,784,784,784,392,392,392,1569,784,784,1569,784,784,392,392,784,784,784,1569]","[128,0,192,256,192,320,192,128,128,128,256,128,0,192,128,128,0,0,192,0,192,192,256,-64,-64,192,128,64,320,192,320,-64,128,256,192,384,192,256,192,192,0,-64,320,256,-64,256,384,128,384,320,256,128,64,192,128,192,384,128,128,192,192,128,128,256]","[128,0,192,256,192,320,192,128,128,128,256,128,0,192,128,128,0,0,192,0,192,192,256,-64,-64,192,128,64,320,192,320,-64,128,256,192,384,192,256,192,192,0,-64,320,256,-64,256,384,128,384,320,256,128,64,192,128,192,384,128,128,192,192,128,128,256]","[1697,2959,1761,1040,1770,1889,1761,1697,1755,912,1040,1697,784,1761,912,1755,3008,1578,1761,784,1761,976,1825,1505,1505,1721,912,1642,1898,976,1104,1505,912,1040,976,2011,1770,1040,1770,976,3008,1505,1104,1040,1505,1825,1168,912,1168,1947,1736,1755,1633,976,912,1761,1168,912,1706,1770,976,912,912,1825]","[1697,2959,1761,1040,1770,1889,1761,1697,1755,912,1040,1697,784,1761,912,1755,3008,1578,1761,784,1761,976,1825,1505,1505,1721,912,1642,1898,976,1104,1505,912,1040,976,2011,1770,1040,1770,976,3008,1505,1104,1040,1505,1825,1168,912,1168,1947,1736,1755,1633,976,912,1761,1168,912,1706,1770,976,912,912,1825]","[""0"",""1"",""0"",""0"",""0"",""0"",""0"",""0"",""0"",""0"",""0"",""0"",""0"",""0"",""0"",""0"",""1"",""0"",""0"",""0"",""0"",""0"",""0"",""0"",""0"",""0"",""0"",""0"",""0"",""0"",""0"",""0"",""0"",""0"",""0"",""0"",""0"",""0"",""0"",""0"",""1"",""0"",""0"",""0"",""0"",""0"",""0"",""0"",""0"",""0"",""0"",""0"",""0"",""0"",""0"",""0"",""0"",""0"",""0"",""0"",""0"",""0"",""0"",""0""]","[1697,0,1761,1040,1770,1889,1761,1697,1755,912,1040,1697,784,1761,912,1755,0,1578,1761,784,1761,976,1825,1505,1505,1721,912,1642,1898,976,1104,1505,912,1040,976,2011,1770,1040,1770,976,0,1505,1104,1040,1505,1825,1168,912,1168,1947,1736,1755,1633,976,912,1761,1168,912,1706,1770,976,912,912,1825]","[2,1,2,1,0,2,2,2,0,1,1,2,1,2,1,0,1,0,2,1,2,1,2,2,2,0,1,0,0,1,1,2,1,1,1,0,0,1,0,1,1,2,1,1,2,2,1,1,1,0,0,0,2,1,1,2,1,1,0,0,1,1,1,2]"
2,train_0002,train,5,524,"[1697,0,1761,1040,1770,1889,1761,1697,1755,912,1040,1697,784,1761,912,1755,0,1578,1761,784,1761,976,1825,1505,1505,1721,912,1642,1898,976,1104,1505,912,1040,976,2011,1770,1040,1770,976,0,1505,1104,1040,1505,1825,1168,912,1168,1947,1736,1755,1633,976,912,1761,1168,912,1706,1770,976,912,912,1825]","[1572,786,1572,786,393,1572,1572,1572,393,786,786,1572,786,1572,786,393,786,393,1572,786,1572,786,1572,1572,1572,393,786,393,393,786,786,1572,786,786,786,393,393,786,393,786,786,1572,786,786,1572,1572,786,786,786,393,393,393,1572,786,786,1572,786,786,393,393,786,786,786,1572]","[0,0,0,-64,64,0,0,0,0,64,0,0,0,0,64,-64,0,0,0,64,0,0,0,0,64,0,0,0,0,0,0,0,64,0,64,64,64,0,0,0,0,0,64,0,-64,64,0,0,64,0,0,0,-64,0,0,0,0,0,0,0,0,0,0,0]","[0,0,0,-64,64,0,0,0,0,64,0,0,0,0,64,-64,0,0,0,64,0,0,0,0,64,0,0,0,0,0,0,0,64,0,64,64,64,0,0,0,0,0,64,0,-64,64,0,0,64,0,0,0,-64,0,0,0,0,0,0,0,0,0,0,0]","[3057,786,3113,1632,2006,3225,3113,3057,1929,1648,1696,3057,1472,3113,1648,1865,786,1774,3113,1536,3113,1640,3169,2889,2953,1899,1584,1830,2054,1640,1752,2889,1648,1696,1704,2217,2006,1696,1942,1640,786,2889,1816,1696,2825,3233,1808,1584,1872,2097,1912,1929,2937,1640,1584,3113,1808,1584,1886,1942,1640,1584,1584,3169]","[3057,786,3113,1632,2006,3225,3113,3057,1929,1648,1696,3057,1472,3113,1648,1865,786,1774,3113,1536,3113,1640,3169,2889,2953,1899,1584,1830,2054,1640,1752,2889,1648,1696,1704,2217,2006,1696,1942,1640,786,2889,1816,1696,2825,3233,1808,1584,1872,2097,1912,1929,2937,1640,1584,3113,1808,1584,1886,1942,1640,1584,1584,3169]","[""1"",""0"",""1"",""0"",""0"",""1"",""1"",""1"",""0"",""0"",""0"",""1"",""0"",""1"",""0"",""0"",""0"",""0"",""1"",""0"",""1"",""0"",""1"",""1"",""1"",""0"",""0"",""0"",""0"",""0"",""0"",""1"",""0"",""0"",""0"",""0"",""0"",""0"",""0"",""0"",""0"",""1"",""0"",""0"",""1"",""1"",""0"",""0"",""0"",""0"",""0"",""0"",""1"",""0"",""0"",""1"",""0"",""0"",""0"",""0"",""0"",""0"",""0"",""1""]","[0,786,0,1632,2006,0,0,0,1929,1648,1696,0,1472,0,1648,1865,786,1774,0,1536,0,1640,0,0,0,1899,1584,1830,2054,1640,1752,0,1648,1696,1704,2217,2006,1696,1942,1640,786,0,1816,1696,0,0,1808,1584,1872,2097,1912,1929,0,1640,1584,0,1808,1584,1886,1942,1640,1584,1584,0]","[3,1,3,1,0,3,3,3,0,1,1,3,1,3,1,0,1,0,3,1,3,1,3,3,3,0,1,0,0,1,1,3,1,1,1,0,0,1,0,1,1,3,1,1,3,3,1,1,1,0,0,0,3,1,1,3,1,1,0,0,1,1,1,3]"
2,train_0002,train,6,531,"[0,786,0,1632,2006,0,0,0,1929,1648,1696,0,1472,0,1648,1865,786,1774,0,1536,0,1640,0,0,0,1899,1584,1830,2054,1640,1752,0,1648,1696,1704,2217,2006,1696,1942,1640,786,0,1816,1696,0,0,1808,1584,1872,2097,1912,1929,0,1640,1584,0,1808,1584,1886,1942,1640,1584,1584,0]","[1593,796,1593,796,398,1593,1593,1593,398,796,796,1593,796,1593,796,398,796,398,1593,796,1593,796,1593,1593,1593,398,796,398,398,796,796,1593,796,796,796,398,398,796,398,796,796,1593,796,796,1593,1593,796,796,796,398,398,398,1593,796,796,1593,796,796,398,398,796,796,796,1593]","[128,-128,0,64,64,64,128,0,128,64,192,128,0,192,64,128,-64,64,0,0,64,128,128,-128,0,0,64,64,64,64,64,-64,64,128,256,128,64,0,64,128,-64,-64,0,128,0,128,128,128,64,128,-64,128,0,128,64,0,256,64,64,64,0,192,0,0]","[128,-128,0,64,64,64,128,0,128,64,192,128,0,192,64,128,-64,64,0,0,64,128,128,-128,0,0,64,64,64,64,64,-64,64,128,256,128,64,0,64,128,-64,-64,0,128,0,128,128,128,64,128,-64,128,0,128,64,0,256,64,64,64,0,192,0,0]","[1721,1356,1593,2288,2218,1657,1721,1593,2214,2302,2472,1721,2084,1785,2302,2158,1420,2015,1593,2140,1657,2359,1721,1465,1593,2060,2246,2064,2260,2295,2393,1529,2302,2408,2543,2466,2218,2280,2162,2359,1420,1529,2385,2408,1593,1721,2506,2310,2498,2361,2007,2214,1593,2359,2246,1593,2634,2246,2113,2162,2231,2374,2182,1593]","[1721,1356,1593,2288,2218,1657,1721,1593,2214,2302,2472,1721,2084,1785,2302,2158,1420,2015,1593,2140,1657,2359,1721,1465,1593,2060,2246,2064,2260,2295,2393,1529,2302,2408,2543,2466,2218,2280,2162,2359,1420,1529,2385,2408,1593,1721,2506,2310,2498,2361,2007,2214,1593,2359,2246,1593,2634,2246,2113,2162,2231,2374,2182,1593]","[""0"",""0"",""0"",""0"",""0"",""0"",""0"",""0"",""0"",""0"",""0"",""0"",""0"",""0"",""0"",""0"",""0"",""0"",""0"",""0"",""0"",""0"",""0"",""0"",""0"",""0"",""0"",""0"",""0"",""0"",""0"",""0"",""0"",""0"",""0"",""0"",""0"",""0"",""0"",""0"",""0"",""0"",""0"",""0"",""0"",""0"",""0"",""0"",""0"",""0"",""0"",""0"",""0"",""0"",""0"",""0"",""1"",""0"",""0"",""0"",""0"",""0"",""0"",""0""]","[1721,1356,1593,2288,2218,1657,1721,1593,2214,2302,2472,1721,2084,1785,2302,2158,1420,2015,1593,2140,1657,2359,1721,1465,1593,2060,2246,2064,2260,2295,2393,1529,2302,2408,2543,2466,2218,2280,2162,2359,1420,1529,2385,2408,1593,1721,2506,2310,2498,2361,2007,2214,1593,2359,2246,1593,0,2246,2113,2162,2231,2374,2182,1593]","[3,1,3,1,0,3,3,3,0,1,1,3,1,3,1,0,1,0,3,1,3,1,3,3,3,0,1,0,0,1,1,3,1,1,1,0,0,1,0,1,1,3,1,1,3,3,1,1,1,0,0,0,3,1,1,3,2,1,0,0,1,1,1,3]"
2,train_0002,train,7,553,"[1721,1356,1593,2288,2218,1657,1721,1593,2214,2302,2472,1721,2084,1785,2302,2158,1420,2015,1593,2140,1657,2359,1721,1465,1593,2060,2246,2064,2260,2295,2393,1529,2302,2408,2543,2466,2218,2280,2162,2359,1420,1529,2385,2408,1593,1721,2506,2310,2498,2361,2007,2214,1593,2359,2246,1593,0,2246,2113,2162,2231,2374,2182,1593]","[1659,829,1659,829,414,1659,1659,1659,414,829,829,1659,829,1659,829,414,829,414,1659,829,1659,829,1659,1659,1659,414,829,414,414,829,829,1659,829,829,829,414,414,829,414,829,829,1659,829,829,1659,1659,829,829,829,414,414,414,1659,829,829,1659,829,829,414,414,829,829,829,1659]","[0,0,0,0,0,0,0,0,64,0,0,0,0,0,0,0,0,0,0,0,0,0,0,0,0,64,0,0,0,0,0,0,0,64,0,0,0,0,0,0,0,0,0,64,0,0,0,0,0,0,64,0,0,0,0,0,0,0,0,0,0,0,64,0]","[0,0,0,0,0,0,0,0,64,0,0,0,0,0,0,0,0,0,0,0,0,0,0,0,0,64,0,0,0,0,0,0,0,64,0,0,0,0,0,0,0,0,0,64,0,0,0,0,0,0,64,0,0,0,0,0,0,0,0,0,0,0,64,0]","[3165,2016,3053,2831,2355,3109,3165,3053,2416,2844,2992,3165,2653,3221,2844,2303,2072,2178,3053,2702,3109,2894,3165,2941,3053,2281,2795,2220,2392,2838,2923,2997,2844,3000,3055,2572,2355,2824,2306,2894,2072,2997,2916,3000,3053,3165,3022,2851,3015,2480,2235,2352,3053,2894,2795,3053,829,2795,2263,2306,2782,2907,2803,3053]","[3165,2016,3053,2831,2355,3109,3165,3053,2416,2844,2992,3165,2653,3221,2844,2303,2072,2178,3053,2702,3109,2894,3165,2941,3053,2281,2795,2220,2392,2838,2923,2997,2844,3000,3055,2572,2355,2824,2306,2894,2072,2997,2916,3000,3053,3165,3022,2851,3015,2480,2235,2352,3053,2894,2795,3053,829,2795,2263,2306,2782,2907,2803,3053]","[""1"",""0"",""1"",""1"",""0"",""1"",""1"",""1"",""0"",""1"",""1"",""1"",""1"",""1"",""1"",""0"",""0"",""0"",""1"",""1"",""1"",""1"",""1"",""1"",""1"",""0"",""1"",""0"",""0"",""1"",""1"",""1"",""1"",""1"",""1"",""1"",""0"",""1"",""0"",""1"",""0"",""1"",""1"",""1"",""1"",""1"",""1"",""1"",""1"",""0"",""0"",""0"",""1"",""1"",""1"",""1"",""0"",""1"",""0"",""0"",""1"",""1"",""1"",""1""]","[0,2016,0,0,2355,0,0,0,2416,0,0,0,0,0,0,2303,2072,2178,0,0,0,0,0,0,0,2281,0,2220,2392,0,0,0,0,0,0,0,2355,0,2306,0,2072,0,0,0,0,0,0,0,0,2480,2235,2352,0,0,0,0,829,0,2263,2306,0,0,0,0]","[4,1,4,2,0,4,4,4,0,2,2,4,2,4,2,0,1,0,4,2,4,2,4,4,4,0,2,0,0,2,2,4,2,2,2,1,0,2,0,2,1,4,2,2,4,4,2,2,2,0,0,0,4,2,2,4,2,2,0,0,2,2,2,4]"
2,train_0002,train,8,583,"[0,2016,0,0,2355,0,0,0,2416,0,0,0,0,0,0,2303,2072,2178,0,0,0,0,0,0,0,2281,0,2220,2392,0,0,0,0,0,0,0,2355,0,2306,0,2072,0,0,0,0,0,0,0,0,2480,2235,2352,0,0,0,0,829,0,2263,2306,0,0,0,0]","[1749,874,1749,874,437,1749,1749,1749,437,874,874,1749,874,1749,874,437,874,437,1749,874,1749,874,1749,1749,1749,437,874,437,437,874,874,1749,874,874,874,437,437,874,437,874,874,1749,874,874,1749,1749,874,874,874,437,437,437,1749,874,874,1749,874,874,437,437,874,874,874,1749]","[128,64,192,192,192,320,192,64,64,128,256,128,0,192,128,128,0,0,192,0,192,128,256,-64,-64,128,192,64,320,192,320,-64,128,192,128,384,192,256,192,192,0,-64,320,192,-64,256,384,128,384,320,256,128,64,256,128,192,384,128,128,192,256,128,64,256]","[128,64,192,192,192,320,192,64,64,128,256,128,0,192,128,128,0,0,192,0,192,128,256,-64,-64,128,192,64,320,192,320,-64,128,192,128,384,192,256,192,192,0,-64,320,192,-64,256,384,128,384,320,256,128,64,256,128,192,384,128,128,192,256,128,64,256]","[1877,2702,1941,1066,2690,2069,1941,1813,2615,1002,1130,1877,874,1941,1002,2581,2687,2343,1941,874,1941,1002,2005,1685,1685,2561,1066,2444,2850,1066,1194,1685,1002,1066,1002,821,2690,1130,2647,1066,2687,1685,1194,1066,1685,2005,1258,1002,1258,2927,2649,2623,1813,1130,1002,1941,1984,1002,2546,2647,1130,1002,938,2005]","[1877,2702,1941,1066,2690,2069,1941,1813,2615,1002,1130,1877,874,1941,1002,2581,2687,2343,1941,874,1941,1002,2005,1685,1685,2561,1066,2444,2850,1066,1194,1685,1002,1066,1002,821,2690,1130,2647,1066,2687,1685,1194,1066,1685,2005,1258,1002,1258,2927,2649,2623,1813,1130,1002,1941,1984,1002,2546,2647,1130,1002,938,2005]","[""0"",""1"",""0"",""0"",""1"",""0"",""0"",""0"",""1"",""0"",""0"",""0"",""0"",""0"",""0"",""1"",""1"",""0"",""0"",""0"",""0"",""0"",""0"",""0"",""0"",""1"",""0"",""0"",""1"",""0"",""0"",""0"",""0"",""0"",""0"",""0"",""1"",""0"",""1"",""0"",""1"",""0"",""0"",""0"",""0"",""0"",""0"",""0"",""0"",""1"",""1"",""1"",""0"",""0"",""0"",""0"",""0"",""0"",""0"",""1"",""0"",""0"",""0"",""0""]","[1877,0,1941,1066,0,2069,1941,1813,0,1002,1130,1877,874,1941,1002,0,0,2343,1941,874,1941,1002,2005,1685,1685,0,1066,2444,0,1066,1194,1685,1002,1066,1002,821,0,1130,0,1066,0,1685,1194,1066,1685,2005,1258,1002,1258,0,0,0,1813,1130,1002,1941,1984,1002,2546,0,1130,1002,938,2005]","[4,2,4,2,1,4,4,4,1,2,2,4,2,4,2,1,2,0,4,2,4,2,4,4,4,1,2,0,1,2,2,4,2,2,2,1,1,2,1,2,2,4,2,2,4,4,2,2,2,1,1,1,4,2,2,4,2,2,0,1,2,2,2,4]"
2,train_0002,train,9,593,"[1877,0,1941,1066,0,2069,1941,1813,0,1002,1130,1877,874,1941,1002,0,0,2343,1941,874,1941,1002,2005,1685,1685,0,1066,2444,0,1066,1194,1685,1002,1066,1002,821,0,1130,0,1066,0,1685,1194,1066,1685,2005,1258,1002,1258,0,0,0,1813,1130,1002,1941,1984,1002,2546,0,1130,1002,938,2005]","[1779,889,1779,889,444,1779,1779,1779,444,889,889,1779,889,1779,889,444,889,444,1779,889,1779,889,1779,1779,1779,444,889,444,444,889,889,1779,889,889,889,444,444,889,444,889,889,1779,889,889,1779,1779,889,889,889,444,444,444,1779,889,889,1779,889,889,444,444,889,889,889,1779]","[64,-64,0,-64,64,192,64,0,64,64,-64,128,128,0,64,-64,64,128,-64,128,64,0,0,0,128,64,0,0,-64,128,64,64,64,-64,64,64,128,0,64,64,0,0,128,0,128,0,0,0,0,64,64,64,0,0,64,64,128,128,128,128,128,64,0,0]","[64,-64,0,-64,64,192,64,0,64,64,-64,128,128,0,64,-64,64,128,-64,128,64,0,0,0,128,64,0,0,-64,128,64,64,64,-64,64,64,128,0,64,64,0,0,128,0,128,0,0,0,0,64,64,64,0,0,64,64,128,128,128,128,128,64,0,0]","[3486,825,3478,1758,508,3782,3542,3366,508,1830,1814,3550,1782,3478,1830,380,953,2623,3414,1782,3542,1766,3534,3254,3382,508,1822,2583,380,1950,1998,3318,1830,1758,1830,1227,572,1878,508,1886,889,3254,2062,1822,3382,3534,1990,1766,1990,508,508,508,3366,1878,1830,3542,2753,1894,2800,572,2006,1830,1710,3534]","[3486,825,3478,1758,508,3782,3542,3366,508,1830,1814,3550,1782,3478,1830,380,953,2623,3414,1782,3542,1766,3534,3254,3382,508,1822,2583,380,1950,1998,3318,1830,1758,1830,1227,572,1878,508,1886,889,3254,2062,1822,3382,3534,1990,1766,1990,508,508,508,3366,1878,1830,3542,2753,1894,2800,572,2006,1830,1710,3534]","[""1"",""0"",""1"",""0"",""0"",""1"",""1"",""1"",""0"",""0"",""0"",""1"",""0"",""1"",""0"",""0"",""0"",""1"",""1"",""0"",""1"",""0"",""1"",""1"",""1"",""0"",""0"",""1"",""0"",""0"",""0"",""1"",""0"",""0"",""0"",""0"",""0"",""0"",""0"",""0"",""0"",""1"",""0"",""0"",""1"",""1"",""0"",""0"",""0"",""0"",""0"",""0"",""1"",""0"",""0"",""1"",""1"",""0"",""1"",""0"",""0"",""0"",""0"",""1""]","[0,825,0,1758,508,0,0,0,508,1830,1814,0,1782,0,1830,380,953,0,0,1782,0,1766,0,0,0,508,1822,0,380,1950,1998,0,1830,1758,1830,1227,572,1878,508,1886,889,0,2062,1822,0,0,1990,1766,1990,508,508,508,0,1878,1830,0,0,1894,0,572,2006,1830,1710,0]","[5,2,5,2,1,5,5,5,1,2,2,5,2,5,2,1,2,1,5,2,5,2,5,5,5,1,2,1,1,2,2,5,2,2,2,1,1,2,1,2,2,5,2,2,5,5,2,2,2,1,1,1,5,2,2,5,3,2,1,1,2,2,2,5]"
